ECG
184.02099609375
174.86572265625
172.119140625
163.87939453125
162.9638671875
146.484375
134.58251953125
138.24462890625
135.498046875
115.3564453125
97.0458984375
88.80615234375
79.65087890625
75.0732421875
58.59375
43.02978515625
37.53662109375
21.97265625
17.39501953125
10.07080078125
-0.91552734375
-9.1552734375
-15.56396484375
-22.88818359375
-47.607421875
-59.50927734375
-55.84716796875
-62.255859375
-68.66455078125
-62.255859375
-69.580078125
-69.580078125
-68.66455078125
-71.4111328125
-73.2421875
-74.15771484375
-76.904296875
-70.49560546875
-75.0732421875
-79.65087890625
-81.48193359375
-76.904296875
-84.228515625
-88.80615234375
-75.98876953125
-69.580078125
-75.0732421875
-59.50927734375
-60.4248046875
-59.50927734375
-65.00244140625
-71.4111328125
-64.0869140625
-64.0869140625
-71.4111328125
-80.56640625
-64.0869140625
-55.84716796875
-58.59375
-65.00244140625
-61.34033203125
-58.59375
-55.84716796875
-54.01611328125
-65.91796875
-65.91796875
-61.34033203125
-65.00244140625
-61.34033203125
-65.91796875
-74.15771484375
-72.32666015625
-76.904296875
-72.32666015625
-69.580078125
-74.15771484375
-69.580078125
-60.4248046875
-51.26953125
-53.1005859375
-58.59375
-58.59375
-57.67822265625
-53.1005859375
-54.01611328125
-62.255859375
-56.7626953125
-57.67822265625
-55.84716796875
-63.17138671875
-68.66455078125
-79.65087890625
-78.7353515625
-60.4248046875
-67.7490234375
-71.4111328125
-70.49560546875
-65.91796875
-58.59375
-65.91796875
-65.91796875
-71.4111328125
-65.91796875
-62.255859375
-67.7490234375
-72.32666015625
-73.2421875
-70.49560546875
-70.49560546875
-71.4111328125
-67.7490234375
-73.2421875
-77.81982421875
-84.228515625
-81.48193359375
-72.32666015625
-70.49560546875
-69.580078125
-71.4111328125
-68.66455078125
-72.32666015625
-75.98876953125
-82.3974609375
-87.890625
-91.552734375
-96.13037109375
-74.15771484375
-65.91796875
-69.580078125
-64.0869140625
-69.580078125
-75.0732421875
-66.83349609375
-49.4384765625
-48.52294921875
-44.86083984375
-29.296875
-15.56396484375
-14.6484375
-8.23974609375
-16.4794921875
-21.05712890625
-15.56396484375
-12.8173828125
-17.39501953125
-15.56396484375
12.8173828125
34.7900390625
32.04345703125
37.53662109375
26.55029296875
33.87451171875
41.19873046875
34.7900390625
24.71923828125
26.55029296875
32.958984375
36.62109375
36.62109375
22.88818359375
10.07080078125
3.662109375
-1.8310546875
-11.90185546875
-15.56396484375
-15.56396484375
-27.4658203125
-42.1142578125
-63.17138671875
-69.580078125
-75.0732421875
-79.65087890625
-70.49560546875
-85.14404296875
-84.228515625
-94.29931640625
-97.96142578125
-87.890625
-85.14404296875
-87.890625
-92.46826171875
-88.80615234375
-80.56640625
-86.0595703125
-86.0595703125
-90.63720703125
-96.13037109375
-108.0322265625
-121.76513671875
-115.3564453125
-102.5390625
-100.7080078125
-102.5390625
-108.0322265625
-92.46826171875
-89.7216796875
-88.80615234375
-90.63720703125
-97.96142578125
-112.60986328125
-111.6943359375
-108.94775390625
-117.1875
-117.1875
-134.58251953125
-141.90673828125
-133.6669921875
-113.525390625
-59.50927734375
0
99.79248046875
244.44580078125
377.197265625
544.73876953125
729.67529296875
888.0615234375
1037.29248046875
1159.0576171875
1235.04638671875
1208.49609375
989.68505859375
706.787109375
434.87548828125
196.83837890625
96.13037109375
43.9453125
19.22607421875
-1.8310546875
-37.53662109375
-57.67822265625
-75.0732421875
-68.66455078125
-49.4384765625
-40.283203125
-39.36767578125
-38.4521484375
-54.931640625
-63.17138671875
-59.50927734375
-62.255859375
-61.34033203125
-65.00244140625
-66.83349609375
-75.98876953125
-75.0732421875
-75.98876953125
-82.3974609375
-82.3974609375
-74.15771484375
-73.2421875
-72.32666015625
-77.81982421875
-75.0732421875
-80.56640625
-77.81982421875
-76.904296875
-72.32666015625
-55.84716796875
-54.01611328125
-49.4384765625
-60.4248046875
-65.91796875
-69.580078125
-70.49560546875
-69.580078125
-67.7490234375
-61.34033203125
-41.19873046875
-33.87451171875
-26.55029296875
-25.634765625
-32.958984375
-33.87451171875
-36.62109375
-33.87451171875
-21.05712890625
-22.88818359375
-22.88818359375
-12.8173828125
5.4931640625
-19.22607421875
-36.62109375
-25.634765625
-7.32421875
-0.91552734375
-3.662109375
8.23974609375
5.4931640625
21.05712890625
27.4658203125
37.53662109375
27.4658203125
29.296875
41.19873046875
57.67822265625
56.7626953125
53.1005859375
70.49560546875
77.81982421875
85.14404296875
86.0595703125
93.3837890625
93.3837890625
102.5390625
112.60986328125
119.93408203125
126.3427734375
131.8359375
141.90673828125
135.498046875
131.8359375
147.39990234375
148.3154296875
165.71044921875
166.6259765625
177.6123046875
173.9501953125
164.794921875
164.794921875
178.52783203125
171.20361328125
171.20361328125
182.18994140625
185.85205078125
174.86572265625
170.2880859375
183.10546875
207.82470703125
205.99365234375
199.5849609375
191.34521484375
185.85205078125
186.767578125
176.69677734375
166.6259765625
146.484375
134.58251953125
137.3291015625
148.3154296875
127.25830078125
118.10302734375
115.3564453125
99.79248046875
80.56640625
73.2421875
49.4384765625
45.7763671875
40.283203125
25.634765625
11.90185546875
2.74658203125
-10.07080078125
-14.6484375
-14.6484375
-24.71923828125
-37.53662109375
-43.02978515625
-48.52294921875
-54.931640625
-58.59375
-58.59375
-69.580078125
-68.66455078125
-74.15771484375
-78.7353515625
-80.56640625
-85.14404296875
-86.97509765625
-90.63720703125
-76.904296875
-82.3974609375
-85.14404296875
-72.32666015625
-70.49560546875
-81.48193359375
-83.31298828125
-86.0595703125
-81.48193359375
-64.0869140625
-58.59375
-54.931640625
-49.4384765625
-55.84716796875
-61.34033203125
-63.17138671875
-72.32666015625
-75.98876953125
-65.00244140625
-58.59375
-63.17138671875
-73.2421875
-84.228515625
-71.4111328125
-77.81982421875
-79.65087890625
-70.49560546875
-59.50927734375
-51.26953125
-58.59375
-65.91796875
-72.32666015625
-67.7490234375
-65.91796875
-67.7490234375
-55.84716796875
-58.59375
-75.98876953125
-69.580078125
-75.98876953125
-78.7353515625
-80.56640625
-81.48193359375
-82.3974609375
-80.56640625
-78.7353515625
-67.7490234375
-63.17138671875
-81.48193359375
-80.56640625
-83.31298828125
-94.29931640625
-89.7216796875
-82.3974609375
-84.228515625
-83.31298828125
-86.0595703125
-91.552734375
-78.7353515625
-80.56640625
-86.97509765625
-88.80615234375
-75.98876953125
-85.14404296875
-104.3701171875
-97.96142578125
-99.79248046875
-100.7080078125
-94.29931640625
-90.63720703125
-98.876953125
-100.7080078125
-89.7216796875
-93.3837890625
-96.13037109375
-86.97509765625
-89.7216796875
-93.3837890625
-76.904296875
-65.91796875
-73.2421875
-66.83349609375
-59.50927734375
-57.67822265625
-64.0869140625
-45.7763671875
-36.62109375
-43.02978515625
-48.52294921875
-51.26953125
-34.7900390625
-28.38134765625
-11.90185546875
-22.88818359375
1.8310546875
3.662109375
3.662109375
-2.74658203125
-21.97265625
-6.40869140625
1.8310546875
1.8310546875
20.1416015625
7.32421875
1.8310546875
-4.57763671875
-15.56396484375
-32.958984375
-67.7490234375
-77.81982421875
-81.48193359375
-89.7216796875
-94.29931640625
-101.62353515625
-99.79248046875
-93.3837890625
-98.876953125
-108.94775390625
-111.6943359375
-105.28564453125
-115.3564453125
-127.25830078125
-129.08935546875
-130.92041015625
-130.0048828125
-140.9912109375
-142.822265625
-145.56884765625
-153.80859375
-140.07568359375
-134.58251953125
-124.51171875
-119.93408203125
-135.498046875
-149.23095703125
-159.3017578125
-153.80859375
-149.23095703125
-146.484375
-131.8359375
-144.6533203125
-136.41357421875
-134.58251953125
-128.173828125
-133.6669921875
-146.484375
-144.6533203125
-145.56884765625
-161.1328125
-173.9501953125
-193.17626953125
-184.02099609375
-150.146484375
-97.0458984375
-22.88818359375
89.7216796875
224.30419921875
361.63330078125
532.8369140625
711.36474609375
860.595703125
1001.5869140625
1126.0986328125
1178.28369140625
1114.19677734375
881.65283203125
622.55859375
346.0693359375
162.04833984375
63.17138671875
14.6484375
-17.39501953125
-31.1279296875
-62.255859375
-88.80615234375
-135.498046875
-166.6259765625
-143.73779296875
-95.21484375
-78.7353515625
-75.98876953125
-91.552734375
-92.46826171875
-101.62353515625
-108.94775390625
-110.77880859375
-107.11669921875
-116.27197265625
-121.76513671875
-114.44091796875
-111.6943359375
-121.76513671875
-130.0048828125
-124.51171875
-120.849609375
-123.59619140625
-131.8359375
-143.73779296875
-130.92041015625
-133.6669921875
-119.93408203125
-118.10302734375
-114.44091796875
-114.44091796875
-113.525390625
-108.0322265625
-106.201171875
-114.44091796875
-115.3564453125
-111.6943359375
-123.59619140625
-108.94775390625
-97.96142578125
-108.0322265625
-98.876953125
-97.0458984375
-89.7216796875
-94.29931640625
-94.29931640625
-69.580078125
-66.83349609375
-55.84716796875
-40.283203125
-48.52294921875
-55.84716796875
-57.67822265625
-57.67822265625
-56.7626953125
-44.86083984375
-45.7763671875
-37.53662109375
-33.87451171875
-31.1279296875
-25.634765625
-28.38134765625
-13.73291015625
-13.73291015625
-6.40869140625
-5.4931640625
0.91552734375
-0.91552734375
-0.91552734375
9.1552734375
14.6484375
22.88818359375
25.634765625
38.4521484375
53.1005859375
41.19873046875
61.34033203125
71.4111328125
75.0732421875
67.7490234375
75.98876953125
75.0732421875
82.3974609375
89.7216796875
97.96142578125
97.96142578125
103.45458984375
108.0322265625
108.94775390625
114.44091796875
117.1875
119.0185546875
117.1875
108.94775390625
115.3564453125
99.79248046875
112.60986328125
134.58251953125
127.25830078125
115.3564453125
111.6943359375
117.1875
109.86328125
113.525390625
110.77880859375
104.3701171875
87.890625
84.228515625
76.904296875
69.580078125
59.50927734375
40.283203125
45.7763671875
32.958984375
23.8037109375
18.310546875
2.74658203125
-7.32421875
-19.22607421875
-28.38134765625
-38.4521484375
-43.02978515625
-46.69189453125
-63.17138671875
-75.0732421875
-81.48193359375
-86.0595703125
-95.21484375
-91.552734375
-99.79248046875
-103.45458984375
-101.62353515625
-120.849609375
-129.08935546875
-119.93408203125
-123.59619140625
-124.51171875
-123.59619140625
-117.1875
-127.25830078125
-133.6669921875
-125.42724609375
-111.6943359375
-103.45458984375
-123.59619140625
-130.0048828125
-130.92041015625
-116.27197265625
-109.86328125
-129.08935546875
-124.51171875
-107.11669921875
-104.3701171875
-111.6943359375
-109.86328125
-108.94775390625
-103.45458984375
-103.45458984375
-96.13037109375
-95.21484375
-106.201171875
-100.7080078125
-98.876953125
-111.6943359375
-114.44091796875
-120.849609375
-109.86328125
-95.21484375
-97.96142578125
-101.62353515625
-98.876953125
-110.77880859375
-115.3564453125
-110.77880859375
-112.60986328125
-125.42724609375
-125.42724609375
-114.44091796875
-111.6943359375
-98.876953125
-108.0322265625
-110.77880859375
-106.201171875
-108.0322265625
-86.97509765625
-98.876953125
-109.86328125
-107.11669921875
-111.6943359375
-108.0322265625
-103.45458984375
-106.201171875
-109.86328125
-116.27197265625
-120.849609375
-128.173828125
-119.93408203125
-121.76513671875
-120.849609375
-117.1875
-124.51171875
-119.93408203125
-121.76513671875
-117.1875
-127.25830078125
-137.3291015625
-131.8359375
-130.0048828125
-131.8359375
-117.1875
-116.27197265625
-108.94775390625
-105.28564453125
-102.5390625
-99.79248046875
-102.5390625
-97.0458984375
-94.29931640625
-86.97509765625
-86.97509765625
-87.890625
-86.97509765625
-81.48193359375
-67.7490234375
-49.4384765625
-41.19873046875
-46.69189453125
-57.67822265625
-53.1005859375
-48.52294921875
-42.1142578125
-32.958984375
-30.21240234375
-19.22607421875
-28.38134765625
-35.70556640625
-32.04345703125
-36.62109375
-42.1142578125
-55.84716796875
-58.59375
-84.228515625
-86.97509765625
-83.31298828125
-97.0458984375
-111.6943359375
-113.525390625
-125.42724609375
-125.42724609375
-124.51171875
-144.6533203125
-151.06201171875
-140.07568359375
-140.9912109375
-147.39990234375
-150.146484375
-149.23095703125
-144.6533203125
-138.24462890625
-143.73779296875
-155.6396484375
-157.470703125
-148.3154296875
-148.3154296875
-144.6533203125
-152.89306640625
-157.470703125
-159.3017578125
-157.470703125
-148.3154296875
-138.24462890625
-136.41357421875
-146.484375
-163.87939453125
-156.55517578125
-154.72412109375
-157.470703125
-165.71044921875
-160.21728515625
-159.3017578125
-164.794921875
-166.6259765625
-193.17626953125
-203.2470703125
-165.71044921875
-115.3564453125
-57.67822265625
40.283203125
179.443359375
325.927734375
492.5537109375
663.75732421875
821.22802734375
966.796875
1102.294921875
1178.28369140625
1171.875
971.37451171875
696.71630859375
419.3115234375
197.75390625
90.63720703125
34.7900390625
-6.40869140625
-15.56396484375
-35.70556640625
-71.4111328125
-123.59619140625
-147.39990234375
-146.484375
-124.51171875
-117.1875
-111.6943359375
-110.77880859375
-107.11669921875
-100.7080078125
-113.525390625
-107.11669921875
-104.3701171875
-123.59619140625
-134.58251953125
-131.8359375
-121.76513671875
-111.6943359375
-116.27197265625
-117.1875
-113.525390625
-108.0322265625
-105.28564453125
-110.77880859375
-114.44091796875
-108.0322265625
-102.5390625
-109.86328125
-106.201171875
-97.96142578125
-108.0322265625
-115.3564453125
-107.11669921875
-104.3701171875
-98.876953125
-98.876953125
-108.94775390625
-98.876953125
-89.7216796875
-96.13037109375
-82.3974609375
-75.98876953125
-68.66455078125
-71.4111328125
-74.15771484375
-75.0732421875
-78.7353515625
-70.49560546875
-68.66455078125
-66.83349609375
-58.59375
-54.01611328125
-45.7763671875
-43.9453125
-43.02978515625
-35.70556640625
-32.958984375
-30.21240234375
-22.88818359375
-23.8037109375
-20.1416015625
-12.8173828125
-10.986328125
-14.6484375
1.8310546875
-5.4931640625
-3.662109375
-7.32421875
8.23974609375
20.1416015625
32.04345703125
41.19873046875
46.69189453125
61.34033203125
66.83349609375
75.98876953125
82.3974609375
87.890625
101.62353515625
107.11669921875
104.3701171875
114.44091796875
121.76513671875
110.77880859375
118.10302734375
130.92041015625
142.822265625
143.73779296875
139.16015625
140.9912109375
145.56884765625
158.38623046875
155.6396484375
151.9775390625
158.38623046875
146.484375
136.41357421875
144.6533203125
146.484375
144.6533203125
143.73779296875
142.822265625
143.73779296875
132.75146484375
130.92041015625
123.59619140625
93.3837890625
96.13037109375
97.0458984375
92.46826171875
87.890625
75.98876953125
54.01611328125
39.36767578125
31.1279296875
18.310546875
14.6484375
14.6484375
4.57763671875
-5.4931640625
-13.73291015625
-27.4658203125
-29.296875
-45.7763671875
-55.84716796875
-58.59375
-62.255859375
-75.0732421875
-82.3974609375
-87.890625
-94.29931640625
-98.876953125
-96.13037109375
-102.5390625
-116.27197265625
-99.79248046875
-103.45458984375
-107.11669921875
-99.79248046875
-103.45458984375
-101.62353515625
-98.876953125
-97.0458984375
-94.29931640625
-98.876953125
-100.7080078125
-99.79248046875
-106.201171875
-99.79248046875
-90.63720703125
-97.0458984375
-98.876953125
-95.21484375
-103.45458984375
-116.27197265625
-121.76513671875
-116.27197265625
-83.31298828125
-78.7353515625
-80.56640625
-83.31298828125
-78.7353515625
-81.48193359375
-95.21484375
-89.7216796875
-86.0595703125
-97.0458984375
-93.3837890625
-93.3837890625
-97.0458984375
-97.96142578125
-86.97509765625
-86.97509765625
-89.7216796875
-89.7216796875
-92.46826171875
-95.21484375
-89.7216796875
-97.96142578125
-105.28564453125
-97.0458984375
-97.0458984375
-98.876953125
-81.48193359375
-91.552734375
-90.63720703125
-86.97509765625
-85.14404296875
-98.876953125
-97.96142578125
-91.552734375
-86.97509765625
-90.63720703125
-86.97509765625
-94.29931640625
-97.96142578125
-90.63720703125
-87.890625
-97.0458984375
-90.63720703125
-102.5390625
-101.62353515625
-108.94775390625
-110.77880859375
-110.77880859375
-105.28564453125
-105.28564453125
-102.5390625
-96.13037109375
-88.80615234375
-80.56640625
-65.00244140625
-57.67822265625
-66.83349609375
-62.255859375
-62.255859375
-63.17138671875
-54.931640625
-50.35400390625
-44.86083984375
-49.4384765625
-42.1142578125
-37.53662109375
-21.97265625
-14.6484375
-11.90185546875
-7.32421875
-1.8310546875
-6.40869140625
3.662109375
-2.74658203125
-1.8310546875
0.91552734375
2.74658203125
-1.8310546875
-2.74658203125
-1.8310546875
-4.57763671875
-29.296875
-43.9453125
-54.931640625
-55.84716796875
-57.67822265625
-74.15771484375
-89.7216796875
-105.28564453125
-107.11669921875
-112.60986328125
-119.0185546875
-123.59619140625
-126.3427734375
-129.08935546875
-122.6806640625
-123.59619140625
-123.59619140625
-125.42724609375
-128.173828125
-129.08935546875
-140.07568359375
-134.58251953125
-119.0185546875
-114.44091796875
-103.45458984375
-114.44091796875
-121.76513671875
-121.76513671875
-119.93408203125
-118.10302734375
-114.44091796875
-128.173828125
-121.76513671875
-119.93408203125
-119.93408203125
-128.173828125
-134.58251953125
-143.73779296875
-136.41357421875
-138.24462890625
-141.90673828125
-159.3017578125
-169.37255859375
-164.794921875
-164.794921875
-147.39990234375
-97.96142578125
-53.1005859375
21.05712890625
156.55517578125
284.72900390625
458.67919921875
632.62939453125
802.91748046875
957.6416015625
1085.8154296875
1188.3544921875
1212.158203125
1080.322265625
804.74853515625
527.34375
267.333984375
121.76513671875
53.1005859375
-1.8310546875
-20.1416015625
-43.02978515625
-77.81982421875
-119.0185546875
-127.25830078125
-114.44091796875
-86.0595703125
-67.7490234375
-66.83349609375
-69.580078125
-86.97509765625
-89.7216796875
-93.3837890625
-104.3701171875
-106.201171875
-106.201171875
-100.7080078125
-102.5390625
-96.13037109375
-86.97509765625
-105.28564453125
-109.86328125
-102.5390625
-100.7080078125
-103.45458984375
-105.28564453125
-105.28564453125
-99.79248046875
-93.3837890625
-93.3837890625
-102.5390625
-104.3701171875
-97.0458984375
-96.13037109375
-91.552734375
-85.14404296875
-81.48193359375
-73.2421875
-69.580078125
-76.904296875
-87.890625
-73.2421875
-56.7626953125
-62.255859375
-69.580078125
-65.00244140625
-64.0869140625
-53.1005859375
-49.4384765625
-41.19873046875
-41.19873046875
-35.70556640625
-35.70556640625
-32.04345703125
-27.4658203125
-43.9453125
-34.7900390625
-25.634765625
-10.986328125
-4.57763671875
0
-3.662109375
-5.4931640625
3.662109375
4.57763671875
14.6484375
14.6484375
21.05712890625
24.71923828125
37.53662109375
41.19873046875
50.35400390625
52.18505859375
64.0869140625
65.00244140625
63.17138671875
69.580078125
93.3837890625
95.21484375
100.7080078125
111.6943359375
114.44091796875
123.59619140625
128.173828125
131.8359375
143.73779296875
146.484375
155.6396484375
167.54150390625
162.9638671875
163.87939453125
172.119140625
188.5986328125
184.02099609375
169.37255859375
177.6123046875
177.6123046875
179.443359375
190.4296875
189.51416015625
191.34521484375
177.6123046875
171.20361328125
163.87939453125
160.21728515625
164.794921875
167.54150390625
171.20361328125
166.6259765625
156.55517578125
131.8359375
103.45458984375
101.62353515625
91.552734375
74.15771484375
58.59375
45.7763671875
41.19873046875
43.02978515625
33.87451171875
16.4794921875
0.91552734375
-12.8173828125
-18.310546875
-29.296875
-49.4384765625
-61.34033203125
-63.17138671875
-65.91796875
-69.580078125
-81.48193359375
-89.7216796875
-91.552734375
-88.80615234375
-105.28564453125
-110.77880859375
-101.62353515625
-95.21484375
-101.62353515625
-101.62353515625
-104.3701171875
-115.3564453125
-108.0322265625
-113.525390625
-104.3701171875
-102.5390625
-109.86328125
-103.45458984375
-95.21484375
-85.14404296875
-99.79248046875
-98.876953125
-100.7080078125
-102.5390625
-97.0458984375
-90.63720703125
-99.79248046875
-97.96142578125
-76.904296875
-79.65087890625
-88.80615234375
-90.63720703125
-97.96142578125
-94.29931640625
-89.7216796875
-87.890625
-94.29931640625
-95.21484375
-86.97509765625
-86.0595703125
-100.7080078125
-109.86328125
-90.63720703125
-81.48193359375
-85.14404296875
-95.21484375
-96.13037109375
-89.7216796875
-104.3701171875
-104.3701171875
-102.5390625
-100.7080078125
-92.46826171875
-88.80615234375
-97.0458984375
-92.46826171875
-83.31298828125
-81.48193359375
-82.3974609375
-85.14404296875
-81.48193359375
-86.97509765625
-88.80615234375
-94.29931640625
-96.13037109375
-108.0322265625
-106.201171875
-102.5390625
-103.45458984375
-101.62353515625
-112.60986328125
-113.525390625
-108.94775390625
-108.94775390625
-111.6943359375
-112.60986328125
-108.0322265625
-111.6943359375
-111.6943359375
-106.201171875
-108.94775390625
-120.849609375
-126.3427734375
-121.76513671875
-117.1875
-98.876953125
-89.7216796875
-70.49560546875
-59.50927734375
-65.00244140625
-88.80615234375
-80.56640625
-61.34033203125
-54.931640625
-59.50927734375
-54.01611328125
-43.9453125
-45.7763671875
-26.55029296875
-21.05712890625
-10.986328125
-5.4931640625
-10.07080078125
-11.90185546875
-13.73291015625
-12.8173828125
-18.310546875
-12.8173828125
2.74658203125
8.23974609375
2.74658203125
-9.1552734375
-14.6484375
-20.1416015625
-21.05712890625
-25.634765625
-47.607421875
-75.98876953125
-77.81982421875
-80.56640625
-86.97509765625
-86.97509765625
-108.94775390625
-122.6806640625
-127.25830078125
-145.56884765625
-139.16015625
-123.59619140625
-119.93408203125
-120.849609375
-126.3427734375
-130.0048828125
-125.42724609375
-132.75146484375
-131.8359375
-125.42724609375
-134.58251953125
-130.0048828125
-135.498046875
-140.9912109375
-134.58251953125
-130.0048828125
-140.9912109375
-131.8359375
-126.3427734375
-125.42724609375
-130.0048828125
-132.75146484375
-135.498046875
-127.25830078125
-135.498046875
-137.3291015625
-139.16015625
-145.56884765625
-151.06201171875
-145.56884765625
-143.73779296875
-155.6396484375
-176.69677734375
-197.75390625
-172.119140625
-129.08935546875
-92.46826171875
-26.55029296875
83.31298828125
216.064453125
353.3935546875
522.76611328125
704.9560546875
881.65283203125
1024.47509765625
1147.15576171875
1205.74951171875
1154.47998046875
921.93603515625
628.96728515625
358.88671875
160.21728515625
78.7353515625
3.662109375
-21.05712890625
-53.1005859375
-88.80615234375
-115.3564453125
-130.0048828125
-118.10302734375
-87.890625
-77.81982421875
-68.66455078125
-77.81982421875
-88.80615234375
-101.62353515625
-98.876953125
-94.29931640625
-95.21484375
-97.0458984375
-102.5390625
-101.62353515625
-89.7216796875
-93.3837890625
-100.7080078125
-104.3701171875
-107.11669921875
-114.44091796875
-117.1875
-113.525390625
-105.28564453125
-103.45458984375
-101.62353515625
-97.0458984375
-100.7080078125
-93.3837890625
-86.97509765625
-84.228515625
-86.97509765625
-89.7216796875
-90.63720703125
-93.3837890625
-76.904296875
-65.91796875
-69.580078125
-65.91796875
-69.580078125
-72.32666015625
-74.15771484375
-75.0732421875
-63.17138671875
-61.34033203125
-65.00244140625
-54.931640625
-56.7626953125
-61.34033203125
-52.18505859375
-45.7763671875
-54.01611328125
-48.52294921875
-45.7763671875
-30.21240234375
-21.97265625
-12.8173828125
-10.986328125
-13.73291015625
-3.662109375
4.57763671875
8.23974609375
6.40869140625
5.4931640625
5.4931640625
21.97265625
28.38134765625
33.87451171875
41.19873046875
50.35400390625
58.59375
60.4248046875
75.98876953125
78.7353515625
80.56640625
86.0595703125
104.3701171875
108.94775390625
111.6943359375
122.6806640625
126.3427734375
127.25830078125
130.0048828125
138.24462890625
148.3154296875
158.38623046875
166.6259765625
162.04833984375
166.6259765625
184.9365234375
193.17626953125
194.091796875
180.35888671875
162.04833984375
172.119140625
184.9365234375
179.443359375
182.18994140625
190.4296875
183.10546875
176.69677734375
184.9365234375
182.18994140625
181.2744140625
178.52783203125
166.6259765625
151.9775390625
139.16015625
124.51171875
98.876953125
97.96142578125
96.13037109375
71.4111328125
51.26953125
46.69189453125
39.36767578125
18.310546875
2.74658203125
-2.74658203125
-13.73291015625
-25.634765625
-32.958984375
-51.26953125
-55.84716796875
-63.17138671875
-76.904296875
-80.56640625
-90.63720703125
-90.63720703125
-91.552734375
-105.28564453125
-105.28564453125
-97.0458984375
-97.96142578125
-101.62353515625
-110.77880859375
-114.44091796875
-109.86328125
-114.44091796875
-123.59619140625
-110.77880859375
-102.5390625
-103.45458984375
-106.201171875
-120.849609375
-110.77880859375
-112.60986328125
-117.1875
-122.6806640625
-130.92041015625
-124.51171875
-112.60986328125
-112.60986328125
-113.525390625
-119.0185546875
-108.94775390625
-101.62353515625
-106.201171875
-107.11669921875
-105.28564453125
-107.11669921875
-113.525390625
-115.3564453125
-122.6806640625
-107.11669921875
-108.0322265625
-104.3701171875
-112.60986328125
-108.0322265625
-109.86328125
-109.86328125
-113.525390625
-100.7080078125
-104.3701171875
-124.51171875
-113.525390625
-109.86328125
-107.11669921875
-106.201171875
-99.79248046875
-94.29931640625
-97.96142578125
-100.7080078125
-108.0322265625
-106.201171875
-108.94775390625
-108.0322265625
-125.42724609375
-110.77880859375
-105.28564453125
-114.44091796875
-127.25830078125
-111.6943359375
-107.11669921875
-117.1875
-125.42724609375
-144.6533203125
-130.92041015625
-123.59619140625
-128.173828125
-124.51171875
-116.27197265625
-113.525390625
-125.42724609375
-102.5390625
-108.0322265625
-123.59619140625
-125.42724609375
-121.76513671875
-119.0185546875
-119.93408203125
-121.76513671875
-123.59619140625
-121.76513671875
-130.0048828125
-131.8359375
-125.42724609375
-117.1875
-118.10302734375
-103.45458984375
-88.80615234375
-82.3974609375
-87.890625
-90.63720703125
-81.48193359375
-79.65087890625
-75.0732421875
-64.0869140625
-54.931640625
-62.255859375
-48.52294921875
-44.86083984375
-42.1142578125
-32.958984375
-16.4794921875
-36.62109375
-8.23974609375
-14.6484375
-38.4521484375
-43.02978515625
-29.296875
-18.310546875
-21.97265625
-25.634765625
-31.1279296875
-31.1279296875
-33.87451171875
-44.86083984375
-62.255859375
-86.97509765625
-86.0595703125
-82.3974609375
-97.0458984375
-115.3564453125
-115.3564453125
-122.6806640625
-128.173828125
-125.42724609375
-139.16015625
-137.3291015625
-145.56884765625
-154.72412109375
-142.822265625
-148.3154296875
-149.23095703125
-151.06201171875
-140.9912109375
-132.75146484375
-132.75146484375
-131.8359375
-139.16015625
-155.6396484375
-137.3291015625
-133.6669921875
-130.92041015625
-145.56884765625
-151.06201171875
-158.38623046875
-160.21728515625
-172.119140625
-158.38623046875
-145.56884765625
-137.3291015625
-154.72412109375
-162.04833984375
-154.72412109375
-145.56884765625
-141.90673828125
-157.470703125
-166.6259765625
-186.767578125
-195.9228515625
-190.4296875
-135.498046875
-89.7216796875
-19.22607421875
91.552734375
231.62841796875
385.43701171875
558.4716796875
748.9013671875
899.0478515625
1032.71484375
1144.4091796875
1195.6787109375
1113.28125
871.58203125
596.00830078125
305.7861328125
104.3701171875
31.1279296875
-21.05712890625
-47.607421875
-67.7490234375
-79.65087890625
-97.0458984375
-140.9912109375
-155.6396484375
-134.58251953125
-100.7080078125
-91.552734375
-89.7216796875
-92.46826171875
-94.29931640625
-105.28564453125
-118.10302734375
-126.3427734375
-122.6806640625
-113.525390625
-111.6943359375
-107.11669921875
-113.525390625
-127.25830078125
-112.60986328125
-108.94775390625
-130.92041015625
-134.58251953125
-125.42724609375
-105.28564453125
-109.86328125
-109.86328125
-120.849609375
-136.41357421875
-129.08935546875
-115.3564453125
-108.94775390625
-95.21484375
-94.29931640625
-96.13037109375
-113.525390625
-120.849609375
-107.11669921875
-84.228515625
-82.3974609375
-88.80615234375
-100.7080078125
-100.7080078125
-81.48193359375
-73.2421875
-71.4111328125
-54.931640625
-63.17138671875
-71.4111328125
-79.65087890625
-74.15771484375
-56.7626953125
-47.607421875
-42.1142578125
-52.18505859375
-29.296875
-31.1279296875
-39.36767578125
-47.607421875
-30.21240234375
-22.88818359375
-23.8037109375
-12.8173828125
-6.40869140625
8.23974609375
0
-4.57763671875
-6.40869140625
4.57763671875
10.07080078125
18.310546875
34.7900390625
51.26953125
65.91796875
61.34033203125
57.67822265625
63.17138671875
75.98876953125
84.228515625
96.13037109375
102.5390625
107.11669921875
111.6943359375
110.77880859375
120.849609375
130.0048828125
131.8359375
119.0185546875
120.849609375
142.822265625
151.9775390625
150.146484375
146.484375
146.484375
151.06201171875
160.21728515625
160.21728515625
160.21728515625
162.04833984375
163.87939453125
162.04833984375
168.45703125
173.9501953125
165.71044921875
137.3291015625
122.6806640625
122.6806640625
116.27197265625
108.94775390625
89.7216796875
72.32666015625
86.97509765625
67.7490234375
61.34033203125
47.607421875
39.36767578125
18.310546875
-9.1552734375
-22.88818359375
-44.86083984375
-56.7626953125
-48.52294921875
-46.69189453125
-47.607421875
-55.84716796875
-62.255859375
-73.2421875
-87.890625
-90.63720703125
-89.7216796875
-92.46826171875
-97.96142578125
-115.3564453125
-118.10302734375
-115.3564453125
-122.6806640625
-119.0185546875
-119.93408203125
-116.27197265625
-130.0048828125
-130.92041015625
-132.75146484375
-126.3427734375
-121.76513671875
-127.25830078125
-120.849609375
-117.1875
-113.525390625
-102.5390625
-116.27197265625
-128.173828125
-141.90673828125
-129.08935546875
-119.93408203125
-115.3564453125
-114.44091796875
-124.51171875
-120.849609375
-110.77880859375
-115.3564453125
-119.0185546875
-119.93408203125
-103.45458984375
-108.94775390625
-120.849609375
-118.10302734375
-113.525390625
-113.525390625
-108.94775390625
-112.60986328125
-108.94775390625
-105.28564453125
-107.11669921875
-110.77880859375
-112.60986328125
-110.77880859375
-106.201171875
-114.44091796875
-111.6943359375
-115.3564453125
-111.6943359375
-113.525390625
-114.44091796875
-110.77880859375
-109.86328125
-109.86328125
-113.525390625
-117.1875
-110.77880859375
-110.77880859375
-119.0185546875
-130.0048828125
-128.173828125
-127.25830078125
-127.25830078125
-140.9912109375
-146.484375
-139.16015625
-129.08935546875
-127.25830078125
-121.76513671875
-126.3427734375
-123.59619140625
-117.1875
-113.525390625
-113.525390625
-110.77880859375
-114.44091796875
-107.11669921875
-101.62353515625
-97.0458984375
-84.228515625
-108.94775390625
-103.45458984375
-87.890625
-86.0595703125
-86.0595703125
-77.81982421875
-78.7353515625
-72.32666015625
-78.7353515625
-67.7490234375
-41.19873046875
-27.4658203125
-32.958984375
-31.1279296875
-36.62109375
-34.7900390625
-45.7763671875
-36.62109375
-24.71923828125
-12.8173828125
-11.90185546875
-13.73291015625
-23.8037109375
-39.36767578125
-38.4521484375
-51.26953125
-58.59375
-80.56640625
-94.29931640625
-94.29931640625
-101.62353515625
-110.77880859375
-116.27197265625
-127.25830078125
-140.07568359375
-144.6533203125
-146.484375
-139.16015625
-148.3154296875
-146.484375
-145.56884765625
-149.23095703125
-144.6533203125
-163.87939453125
-167.54150390625
-148.3154296875
-162.9638671875
-163.87939453125
-149.23095703125
-152.89306640625
-152.89306640625
-167.54150390625
-176.69677734375
-168.45703125
-149.23095703125
-151.9775390625
-144.6533203125
-139.16015625
-140.07568359375
-135.498046875
-141.90673828125
-140.9912109375
-144.6533203125
-150.146484375
-154.72412109375
-164.794921875
-172.119140625
-182.18994140625
-191.34521484375
-203.2470703125
-207.82470703125
-192.2607421875
-146.484375
-95.21484375
-20.1416015625
111.6943359375
259.09423828125
395.5078125
563.96484375
731.50634765625
910.0341796875
1062.01171875
1162.7197265625
1186.5234375
1077.57568359375
810.24169921875
541.07666015625
281.982421875
117.1875
42.1142578125
-2.74658203125
-18.310546875
-36.62109375
-75.98876953125
-109.86328125
-141.90673828125
-144.6533203125
-118.10302734375
-103.45458984375
-90.63720703125
-94.29931640625
-102.5390625
-110.77880859375
-111.6943359375
-120.849609375
-124.51171875
-124.51171875
-125.42724609375
-119.0185546875
-121.76513671875
-121.76513671875
-130.92041015625
-124.51171875
-121.76513671875
-126.3427734375
-130.0048828125
-131.8359375
-130.0048828125
-122.6806640625
-114.44091796875
-108.0322265625
-107.11669921875
-107.11669921875
-104.3701171875
-104.3701171875
-112.60986328125
-105.28564453125
-122.6806640625
-104.3701171875
-106.201171875
-93.3837890625
-76.904296875
-84.228515625
-90.63720703125
-89.7216796875
-77.81982421875
-75.0732421875
-74.15771484375
-73.2421875
-56.7626953125
-63.17138671875
-66.83349609375
-59.50927734375
-54.01611328125
-50.35400390625
-43.9453125
-41.19873046875
-44.86083984375
-44.86083984375
-46.69189453125
-33.87451171875
-26.55029296875
-39.36767578125
-32.04345703125
-13.73291015625
-17.39501953125
-7.32421875
1.8310546875
0.91552734375
14.6484375
15.56396484375
29.296875
36.62109375
39.36767578125
40.283203125
45.7763671875
66.83349609375
75.98876953125
65.91796875
75.0732421875
75.0732421875
77.81982421875
93.3837890625
105.28564453125
117.1875
122.6806640625
131.8359375
121.76513671875
135.498046875
142.822265625
146.484375
140.07568359375
143.73779296875
139.16015625
136.41357421875
149.23095703125
154.72412109375
160.21728515625
165.71044921875
159.3017578125
165.71044921875
162.9638671875
168.45703125
161.1328125
152.89306640625
150.146484375
140.9912109375
136.41357421875
127.25830078125
122.6806640625
119.0185546875
109.86328125
100.7080078125
80.56640625
56.7626953125
61.34033203125
43.9453125
35.70556640625
17.39501953125
0.91552734375
6.40869140625
4.57763671875
-2.74658203125
-11.90185546875
-29.296875
-39.36767578125
-44.86083984375
-65.91796875
-77.81982421875
-86.97509765625
-77.81982421875
-86.97509765625
-96.13037109375
-99.79248046875
-97.0458984375
-96.13037109375
-106.201171875
-106.201171875
-92.46826171875
-90.63720703125
-108.0322265625
-109.86328125
-104.3701171875
-117.1875
-119.0185546875
-108.94775390625
-105.28564453125
-107.11669921875
-110.77880859375
-121.76513671875
-111.6943359375
-108.0322265625
-119.93408203125
-115.3564453125
-107.11669921875
-108.94775390625
-108.94775390625
-109.86328125
-92.46826171875
-104.3701171875
-95.21484375
-109.86328125
-113.525390625
-107.11669921875
-110.77880859375
-104.3701171875
-105.28564453125
-106.201171875
-97.0458984375
-86.0595703125
-86.0595703125
-82.3974609375
-86.0595703125
-91.552734375
-92.46826171875
-83.31298828125
-90.63720703125
-90.63720703125
-90.63720703125
-95.21484375
-100.7080078125
-99.79248046875
-95.21484375
-89.7216796875
-91.552734375
-93.3837890625
-96.13037109375
-99.79248046875
-98.876953125
-96.13037109375
-96.13037109375
-90.63720703125
-83.31298828125
-94.29931640625
-99.79248046875
-105.28564453125
-102.5390625
-93.3837890625
-97.0458984375
-97.96142578125
-97.96142578125
-104.3701171875
-108.0322265625
-104.3701171875
-114.44091796875
-119.0185546875
-107.11669921875
-93.3837890625
-98.876953125
-97.0458984375
-95.21484375
-94.29931640625
-100.7080078125
-105.28564453125
-108.94775390625
-102.5390625
-109.86328125
-99.79248046875
-83.31298828125
-81.48193359375
-72.32666015625
-64.0869140625
-63.17138671875
-54.931640625
-64.0869140625
-59.50927734375
-51.26953125
-56.7626953125
-51.26953125
-32.958984375
-14.6484375
-2.74658203125
6.40869140625
5.4931640625
-4.57763671875
0
10.986328125
4.57763671875
-7.32421875
-3.662109375
-2.74658203125
-1.8310546875
9.1552734375
0
-21.97265625
-18.310546875
-24.71923828125
-37.53662109375
-47.607421875
-44.86083984375
-53.1005859375
-60.4248046875
-69.580078125
-86.97509765625
-101.62353515625
-110.77880859375
-106.201171875
-110.77880859375
-114.44091796875
-108.0322265625
-108.0322265625
-110.77880859375
-112.60986328125
-109.86328125
-110.77880859375
-112.60986328125
-115.3564453125
-112.60986328125
-115.3564453125
-126.3427734375
-121.76513671875
-122.6806640625
-122.6806640625
-124.51171875
-120.849609375
-128.173828125
-131.8359375
-130.0048828125
-127.25830078125
-126.3427734375
-133.6669921875
-130.0048828125
-124.51171875
-127.25830078125
-130.0048828125
-128.173828125
-134.58251953125
-142.822265625
-159.3017578125
-171.20361328125
-182.18994140625
-185.85205078125
-150.146484375
-97.0458984375
-32.04345703125
65.00244140625
205.99365234375
343.32275390625
495.30029296875
668.3349609375
832.21435546875
991.51611328125
1122.4365234375
1213.07373046875
1208.49609375
993.34716796875
699.462890625
422.9736328125
185.85205078125
88.80615234375
22.88818359375
-9.1552734375
-25.634765625
-43.02978515625
-80.56640625
-98.876953125
-102.5390625
-72.32666015625
-51.26953125
-52.18505859375
-59.50927734375
-64.0869140625
-70.49560546875
-73.2421875
-75.0732421875
-75.98876953125
-75.0732421875
-71.4111328125
-80.56640625
-82.3974609375
-88.80615234375
-105.28564453125
-110.77880859375
-97.0458984375
-86.0595703125
-78.7353515625
-66.83349609375
-67.7490234375
-70.49560546875
-80.56640625
-85.14404296875
-73.2421875
-64.0869140625
-64.0869140625
-72.32666015625
-66.83349609375
-54.01611328125
-54.931640625
-65.91796875
-49.4384765625
-50.35400390625
-58.59375
-54.01611328125
-52.18505859375
-46.69189453125
-43.9453125
-41.19873046875
-37.53662109375
-39.36767578125
-30.21240234375
-22.88818359375
-24.71923828125
-28.38134765625
-17.39501953125
-21.97265625
-22.88818359375
-21.05712890625
-15.56396484375
-11.90185546875
-8.23974609375
-2.74658203125
10.07080078125
15.56396484375
12.8173828125
15.56396484375
28.38134765625
26.55029296875
28.38134765625
32.958984375
45.7763671875
53.1005859375
55.84716796875
73.2421875
86.97509765625
88.80615234375
92.46826171875
90.63720703125
92.46826171875
93.3837890625
104.3701171875
117.1875
127.25830078125
141.90673828125
140.9912109375
133.6669921875
141.90673828125
171.20361328125
187.68310546875
179.443359375
175.78125
195.9228515625
194.091796875
192.2607421875
200.50048828125
204.16259765625
210.5712890625
211.48681640625
207.82470703125
214.2333984375
214.2333984375
211.48681640625
212.40234375
215.14892578125
218.81103515625
215.14892578125
201.416015625
206.9091796875
197.75390625
173.03466796875
168.45703125
167.54150390625
167.54150390625
155.6396484375
146.484375
132.75146484375
125.42724609375
108.94775390625
104.3701171875
81.48193359375
74.15771484375
59.50927734375
47.607421875
33.87451171875
5.4931640625
10.986328125
10.986328125
-4.57763671875
-19.22607421875
-28.38134765625
-39.36767578125
-43.02978515625
-42.1142578125
-49.4384765625
-57.67822265625
-61.34033203125
-63.17138671875
-72.32666015625
-82.3974609375
-81.48193359375
-78.7353515625
-75.98876953125
-76.904296875
-79.65087890625
-81.48193359375
-77.81982421875
-78.7353515625
-79.65087890625
-80.56640625
-79.65087890625
-88.80615234375
-90.63720703125
-94.29931640625
-78.7353515625
-70.49560546875
-77.81982421875
-75.98876953125
-76.904296875
-72.32666015625
-65.91796875
-65.00244140625
-69.580078125
-68.66455078125
-74.15771484375
-65.00244140625
-67.7490234375
-65.91796875
-64.0869140625
-59.50927734375
-68.66455078125
-67.7490234375
-67.7490234375
-72.32666015625
-73.2421875
-75.98876953125
-76.904296875
-72.32666015625
-73.2421875
-70.49560546875
-72.32666015625
-86.97509765625
-72.32666015625
-61.34033203125
-64.0869140625
-72.32666015625
-73.2421875
-71.4111328125
-74.15771484375
-65.91796875
-61.34033203125
-68.66455078125
-65.91796875
-67.7490234375
-65.00244140625
-63.17138671875
-64.0869140625
-76.904296875
-80.56640625
-81.48193359375
-81.48193359375
-79.65087890625
-80.56640625
-71.4111328125
-69.580078125
-80.56640625
-84.228515625
-90.63720703125
-98.876953125
-94.29931640625
-85.14404296875
-80.56640625
-71.4111328125
-72.32666015625
-73.2421875
-81.48193359375
-86.97509765625
-83.31298828125
-86.97509765625
-95.21484375
-105.28564453125
-106.201171875
-98.876953125
-72.32666015625
-66.83349609375
-57.67822265625
-55.84716796875
-48.52294921875
-34.7900390625
-30.21240234375
-37.53662109375
-44.86083984375
-26.55029296875
-27.4658203125
-29.296875
-29.296875
-27.4658203125
-3.662109375
0
20.1416015625
29.296875
28.38134765625
31.1279296875
29.296875
45.7763671875
28.38134765625
27.4658203125
27.4658203125
27.4658203125
25.634765625
21.97265625
18.310546875
17.39501953125
5.4931640625
-12.8173828125
-18.310546875
-39.36767578125
-43.9453125
-53.1005859375
-69.580078125
-69.580078125
-77.81982421875
-83.31298828125
-89.7216796875
-99.79248046875
-98.876953125
-96.13037109375
-110.77880859375
-102.5390625
-107.11669921875
-102.5390625
-102.5390625
-110.77880859375
-115.3564453125
-107.11669921875
-108.0322265625
-110.77880859375
-118.10302734375
-119.93408203125
-122.6806640625
-127.25830078125
-118.10302734375
-102.5390625
-113.525390625
-110.77880859375
-101.62353515625
-112.60986328125
-118.10302734375
-108.94775390625
-109.86328125
-106.201171875
-108.94775390625
-108.94775390625
-110.77880859375
-117.1875
-120.849609375
-131.8359375
-146.484375
-169.37255859375
-160.21728515625
-119.0185546875
-78.7353515625
-17.39501953125
75.0732421875
201.416015625
321.35009765625
485.2294921875
671.9970703125
856.01806640625
1016.2353515625
1142.578125
1228.6376953125
1208.49609375
997.00927734375
704.9560546875
432.12890625
197.75390625
90.63720703125
33.87451171875
0
-27.4658203125
-60.4248046875
-94.29931640625
-105.28564453125
-98.876953125
-75.0732421875
-59.50927734375
-51.26953125
-55.84716796875
-64.0869140625
-69.580078125
-77.81982421875
-76.904296875
-75.98876953125
-76.904296875
-84.228515625
-90.63720703125
-95.21484375
-100.7080078125
-91.552734375
-81.48193359375
-88.80615234375
-90.63720703125
-98.876953125
-96.13037109375
-80.56640625
-70.49560546875
-82.3974609375
-85.14404296875
-89.7216796875
-82.3974609375
-82.3974609375
-74.15771484375
-67.7490234375
-53.1005859375
-68.66455078125
-65.91796875
-60.4248046875
-67.7490234375
-66.83349609375
-50.35400390625
-50.35400390625
-49.4384765625
-42.1142578125
-32.958984375
-35.70556640625
-38.4521484375
-33.87451171875
-27.4658203125
-35.70556640625
-35.70556640625
-22.88818359375
-17.39501953125
-18.310546875
-7.32421875
-16.4794921875
-17.39501953125
-9.1552734375
0
-7.32421875
7.32421875
14.6484375
13.73291015625
32.958984375
35.70556640625
27.4658203125
39.36767578125
39.36767578125
45.7763671875
54.01611328125
55.84716796875
63.17138671875
74.15771484375
78.7353515625
78.7353515625
80.56640625
95.21484375
97.96142578125
103.45458984375
123.59619140625
137.3291015625
133.6669921875
137.3291015625
156.55517578125
170.2880859375
157.470703125
158.38623046875
176.69677734375
179.443359375
193.17626953125
209.65576171875
212.40234375
207.82470703125
204.16259765625
210.5712890625
206.9091796875
196.83837890625
203.2470703125
205.078125
209.65576171875
210.5712890625
216.064453125
213.31787109375
206.9091796875
201.416015625
205.078125
193.17626953125
187.68310546875
172.119140625
162.04833984375
139.16015625
122.6806640625
120.849609375
113.525390625
95.21484375
88.80615234375
71.4111328125
51.26953125
44.86083984375
30.21240234375
17.39501953125
15.56396484375
10.07080078125
-3.662109375
-12.8173828125
-33.87451171875
-42.1142578125
-45.7763671875
-54.931640625
-60.4248046875
-68.66455078125
-78.7353515625
-77.81982421875
-85.14404296875
-84.228515625
-76.904296875
-81.48193359375
-84.228515625
-84.228515625
-95.21484375
-92.46826171875
-93.3837890625
-94.29931640625
-97.96142578125
-95.21484375
-93.3837890625
-90.63720703125
-82.3974609375
-88.80615234375
-108.0322265625
-115.3564453125
-101.62353515625
-90.63720703125
-91.552734375
-86.97509765625
-80.56640625
-86.97509765625
-90.63720703125
-97.96142578125
-88.80615234375
-94.29931640625
-86.0595703125
-86.0595703125
-90.63720703125
-88.80615234375
-92.46826171875
-95.21484375
-91.552734375
-97.96142578125
-97.96142578125
-73.2421875
-83.31298828125
-83.31298828125
-77.81982421875
-87.890625
-93.3837890625
-103.45458984375
-101.62353515625
-94.29931640625
-95.21484375
-95.21484375
-97.0458984375
-102.5390625
-99.79248046875
-101.62353515625
-87.890625
-84.228515625
-81.48193359375
-90.63720703125
-94.29931640625
-95.21484375
-108.0322265625
-107.11669921875
-102.5390625
-106.201171875
-104.3701171875
-107.11669921875
-105.28564453125
-94.29931640625
-98.876953125
-94.29931640625
-100.7080078125
-106.201171875
-107.11669921875
-111.6943359375
-108.94775390625
-113.525390625
-116.27197265625
-111.6943359375
-107.11669921875
-105.28564453125
-115.3564453125
-126.3427734375
-116.27197265625
-115.3564453125
-111.6943359375
-126.3427734375
-130.0048828125
-125.42724609375
-128.173828125
-123.59619140625
-121.76513671875
-111.6943359375
-103.45458984375
-107.11669921875
-106.201171875
-118.10302734375
-113.525390625
-117.1875
-112.60986328125
-105.28564453125
-86.0595703125
-80.56640625
-88.80615234375
-75.98876953125
-69.580078125
-54.01611328125
-59.50927734375
-59.50927734375
-56.7626953125
-62.255859375
-64.0869140625
-46.69189453125
-30.21240234375
-13.73291015625
-11.90185546875
-22.88818359375
-29.296875
-14.6484375
-12.8173828125
-24.71923828125
-25.634765625
-21.05712890625
-13.73291015625
-11.90185546875
-31.1279296875
-32.04345703125
-36.62109375
-34.7900390625
-36.62109375
-60.4248046875
-61.34033203125
-65.91796875
-89.7216796875
-95.21484375
-112.60986328125
-116.27197265625
-127.25830078125
-127.25830078125
-133.6669921875
-142.822265625
-144.6533203125
-140.07568359375
-144.6533203125
-127.25830078125
-136.41357421875
-133.6669921875
-133.6669921875
-121.76513671875
-139.16015625
-138.24462890625
-134.58251953125
-143.73779296875
-140.07568359375
-141.90673828125
-156.55517578125
-149.23095703125
-144.6533203125
-143.73779296875
-140.07568359375
-140.9912109375
-140.07568359375
-145.56884765625
-147.39990234375
-142.822265625
-142.822265625
-153.80859375
-156.55517578125
-159.3017578125
-166.6259765625
-167.54150390625
-174.86572265625
-196.83837890625
-194.091796875
-145.56884765625
-99.79248046875
-56.7626953125
37.53662109375
180.35888671875
315.85693359375
476.07421875
650.93994140625
813.90380859375
973.20556640625
1107.7880859375
1192.0166015625
1182.861328125
983.2763671875
695.80078125
416.56494140625
184.02099609375
65.00244140625
5.4931640625
-25.634765625
-32.04345703125
-65.91796875
-110.77880859375
-149.23095703125
-165.71044921875
-137.3291015625
-108.94775390625
-95.21484375
-90.63720703125
-94.29931640625
-97.96142578125
-113.525390625
-114.44091796875
-120.849609375
-121.76513671875
-116.27197265625
-120.849609375
-118.10302734375
-115.3564453125
-112.60986328125
-114.44091796875
-125.42724609375
-124.51171875
-129.08935546875
-120.849609375
-120.849609375
-120.849609375
-125.42724609375
-123.59619140625
-121.76513671875
-105.28564453125
-114.44091796875
-118.10302734375
-111.6943359375
-113.525390625
-102.5390625
-103.45458984375
-103.45458984375
-97.96142578125
-102.5390625
-98.876953125
-103.45458984375
-103.45458984375
-109.86328125
-105.28564453125
-93.3837890625
-83.31298828125
-69.580078125
-80.56640625
-80.56640625
-67.7490234375
-68.66455078125
-65.91796875
-59.50927734375
-64.0869140625
-51.26953125
-56.7626953125
-57.67822265625
-53.1005859375
-51.26953125
-41.19873046875
-43.02978515625
-38.4521484375
-28.38134765625
-26.55029296875
-17.39501953125
-17.39501953125
-5.4931640625
2.74658203125
14.6484375
19.22607421875
31.1279296875
30.21240234375
36.62109375
34.7900390625
31.1279296875
32.958984375
57.67822265625
75.0732421875
76.904296875
86.0595703125
101.62353515625
99.79248046875
90.63720703125
92.46826171875
108.94775390625
122.6806640625
128.173828125
127.25830078125
139.16015625
141.90673828125
155.6396484375
151.9775390625
144.6533203125
147.39990234375
149.23095703125
149.23095703125
160.21728515625
161.1328125
162.04833984375
156.55517578125
161.1328125
151.06201171875
140.07568359375
144.6533203125
135.498046875
126.3427734375
125.42724609375
116.27197265625
111.6943359375
110.77880859375
99.79248046875
92.46826171875
77.81982421875
69.580078125
43.9453125
32.958984375
21.97265625
8.23974609375
-3.662109375
-15.56396484375
-25.634765625
-32.958984375
-40.283203125
-49.4384765625
-63.17138671875
-65.00244140625
-68.66455078125
-85.14404296875
-89.7216796875
-76.904296875
-89.7216796875
-97.96142578125
-89.7216796875
-101.62353515625
-110.77880859375
-122.6806640625
-110.77880859375
-111.6943359375
-116.27197265625
-115.3564453125
-106.201171875
-124.51171875
-125.42724609375
-121.76513671875
-105.28564453125
-108.0322265625
-111.6943359375
-109.86328125
-116.27197265625
-118.10302734375
-126.3427734375
-115.3564453125
-112.60986328125
-106.201171875
-113.525390625
-113.525390625
-114.44091796875
-110.77880859375
-111.6943359375
-115.3564453125
-125.42724609375
-120.849609375
-115.3564453125
-111.6943359375
-104.3701171875
-100.7080078125
-105.28564453125
-113.525390625
-97.0458984375
-97.0458984375
-100.7080078125
-102.5390625
-111.6943359375
-111.6943359375
-108.0322265625
-110.77880859375
-117.1875
-121.76513671875
-130.92041015625
-118.10302734375
-111.6943359375
-106.201171875
-101.62353515625
-108.0322265625
-108.0322265625
-106.201171875
-112.60986328125
-122.6806640625
-119.93408203125
-121.76513671875
-103.45458984375
-119.93408203125
-118.10302734375
-110.77880859375
-121.76513671875
-120.849609375
-124.51171875
-120.849609375
-119.93408203125
-116.27197265625
-114.44091796875
-118.10302734375
-116.27197265625
-115.3564453125
-119.0185546875
-136.41357421875
-142.822265625
-132.75146484375
-121.76513671875
-117.1875
-121.76513671875
-120.849609375
-128.173828125
-123.59619140625
-114.44091796875
-111.6943359375
-114.44091796875
-104.3701171875
-99.79248046875
-89.7216796875
-91.552734375
-86.97509765625
-83.31298828125
-78.7353515625
-78.7353515625
-77.81982421875
-76.904296875
-65.91796875
-64.0869140625
-52.18505859375
-32.04345703125
-37.53662109375
-38.4521484375
-25.634765625
-29.296875
-30.21240234375
-25.634765625
-23.8037109375
-10.07080078125
-10.07080078125
-3.662109375
-15.56396484375
-27.4658203125
-30.21240234375
-38.4521484375
-56.7626953125
-76.904296875
-86.0595703125
-85.14404296875
-92.46826171875
-98.876953125
-110.77880859375
-119.0185546875
-136.41357421875
-132.75146484375
-139.16015625
-145.56884765625
-141.90673828125
-140.07568359375
-140.07568359375
-130.0048828125
-135.498046875
-137.3291015625
-143.73779296875
-160.21728515625
-158.38623046875
-153.80859375
-154.72412109375
-151.9775390625
-142.822265625
-154.72412109375
-147.39990234375
-142.822265625
-135.498046875
-133.6669921875
-142.822265625
-142.822265625
-141.90673828125
-146.484375
-143.73779296875
-141.90673828125
-147.39990234375
-147.39990234375
-151.9775390625
-154.72412109375
-151.06201171875
-152.89306640625
-168.45703125
-191.34521484375
-183.10546875
-163.87939453125
-117.1875
-66.83349609375
40.283203125
177.6123046875
312.19482421875
480.65185546875
651.85546875
795.59326171875
950.3173828125
1091.30859375
1178.28369140625
1170.95947265625
984.19189453125
694.88525390625
427.55126953125
185.85205078125
80.56640625
11.90185546875
-21.05712890625
-43.02978515625
-63.17138671875
-88.80615234375
-127.25830078125
-150.146484375
-130.0048828125
-100.7080078125
-79.65087890625
-82.3974609375
-88.80615234375
-92.46826171875
-96.13037109375
-103.45458984375
-105.28564453125
-101.62353515625
-110.77880859375
-123.59619140625
-128.173828125
-119.93408203125
-118.10302734375
-119.0185546875
-127.25830078125
-118.10302734375
-109.86328125
-98.876953125
-107.11669921875
-106.201171875
-112.60986328125
-110.77880859375
-112.60986328125
-105.28564453125
-99.79248046875
-99.79248046875
-100.7080078125
-92.46826171875
-93.3837890625
-97.0458984375
-88.80615234375
-93.3837890625
-97.0458984375
-89.7216796875
-85.14404296875
-84.228515625
-83.31298828125
-74.15771484375
-69.580078125
-75.98876953125
-75.0732421875
-69.580078125
-75.0732421875
-66.83349609375
-54.931640625
-49.4384765625
-49.4384765625
-43.9453125
-39.36767578125
-38.4521484375
-32.04345703125
-40.283203125
-30.21240234375
-27.4658203125
-23.8037109375
-13.73291015625
-5.4931640625
-5.4931640625
2.74658203125
7.32421875
3.662109375
17.39501953125
21.97265625
31.1279296875
36.62109375
39.36767578125
43.9453125
54.931640625
54.01611328125
59.50927734375
63.17138671875
76.904296875
103.45458984375
98.876953125
97.96142578125
103.45458984375
106.201171875
115.3564453125
122.6806640625
122.6806640625
124.51171875
125.42724609375
127.25830078125
144.6533203125
141.90673828125
147.39990234375
166.6259765625
173.03466796875
164.794921875
167.54150390625
162.9638671875
162.04833984375
156.55517578125
162.04833984375
160.21728515625
155.6396484375
158.38623046875
151.9775390625
142.822265625
144.6533203125
130.0048828125
128.173828125
122.6806640625
108.0322265625
87.890625
78.7353515625
72.32666015625
55.84716796875
53.1005859375
43.9453125
33.87451171875
28.38134765625
20.1416015625
1.8310546875
-19.22607421875
-28.38134765625
-42.1142578125
-48.52294921875
-55.84716796875
-68.66455078125
-68.66455078125
-70.49560546875
-74.15771484375
-78.7353515625
-82.3974609375
-89.7216796875
-88.80615234375
-90.63720703125
-98.876953125
-104.3701171875
-101.62353515625
-103.45458984375
-95.21484375
-97.0458984375
-104.3701171875
-101.62353515625
-93.3837890625
-97.0458984375
-91.552734375
-96.13037109375
-107.11669921875
-102.5390625
-96.13037109375
-100.7080078125
-103.45458984375
-105.28564453125
-96.13037109375
-95.21484375
-105.28564453125
-104.3701171875
-92.46826171875
-86.0595703125
-90.63720703125
-93.3837890625
-97.96142578125
-96.13037109375
-86.97509765625
-82.3974609375
-82.3974609375
-86.97509765625
-97.0458984375
-93.3837890625
-101.62353515625
-100.7080078125
-88.80615234375
-82.3974609375
-86.97509765625
-89.7216796875
-91.552734375
-99.79248046875
-100.7080078125
-93.3837890625
-92.46826171875
-86.0595703125
-90.63720703125
-87.890625
-87.890625
-89.7216796875
-85.14404296875
-88.80615234375
-89.7216796875
-89.7216796875
-95.21484375
-101.62353515625
-97.96142578125
-105.28564453125
-109.86328125
-112.60986328125
-110.77880859375
-106.201171875
-97.0458984375
-97.0458984375
-101.62353515625
-105.28564453125
-116.27197265625
-111.6943359375
-97.0458984375
-97.96142578125
-94.29931640625
-97.96142578125
-107.11669921875
-102.5390625
-101.62353515625
-120.849609375
-124.51171875
-114.44091796875
-119.0185546875
-112.60986328125
-109.86328125
-105.28564453125
-109.86328125
-109.86328125
-98.876953125
-97.96142578125
-98.876953125
-93.3837890625
-80.56640625
-81.48193359375
-80.56640625
-67.7490234375
-74.15771484375
-81.48193359375
-63.17138671875
-59.50927734375
-60.4248046875
-61.34033203125
-50.35400390625
-48.52294921875
-35.70556640625
-27.4658203125
-10.07080078125
-9.1552734375
-13.73291015625
0
3.662109375
1.8310546875
0
-2.74658203125
5.4931640625
9.1552734375
18.310546875
14.6484375
0
-17.39501953125
-22.88818359375
-28.38134765625
-34.7900390625
-60.4248046875
-66.83349609375
-65.91796875
-84.228515625
-96.13037109375
-103.45458984375
-115.3564453125
-128.173828125
-120.849609375
-108.0322265625
-106.201171875
-111.6943359375
-119.93408203125
-113.525390625
-107.11669921875
-109.86328125
-119.93408203125
-124.51171875
-129.08935546875
-121.76513671875
-124.51171875
-124.51171875
-131.8359375
-133.6669921875
-128.173828125
-128.173828125
-122.6806640625
-123.59619140625
-128.173828125
-136.41357421875
-126.3427734375
-136.41357421875
-130.0048828125
-119.0185546875
-122.6806640625
-128.173828125
-116.27197265625
-122.6806640625
-130.92041015625
-135.498046875
-149.23095703125
-179.443359375
-191.34521484375
-168.45703125
-135.498046875
-82.3974609375
-8.23974609375
108.0322265625
246.27685546875
393.6767578125
570.37353515625
739.74609375
886.23046875
1017.15087890625
1149.90234375
1206.6650390625
1132.50732421875
884.3994140625
603.33251953125
327.7587890625
141.90673828125
74.15771484375
9.1552734375
-15.56396484375
-45.7763671875
-64.0869140625
-102.5390625
-116.27197265625
-109.86328125
-75.98876953125
-57.67822265625
-57.67822265625
-59.50927734375
-71.4111328125
-83.31298828125
-88.80615234375
-71.4111328125
-85.14404296875
-93.3837890625
-90.63720703125
-95.21484375
-98.876953125
-95.21484375
-101.62353515625
-110.77880859375
-101.62353515625
-97.0458984375
-97.96142578125
-92.46826171875
-89.7216796875
-94.29931640625
-86.97509765625
-87.890625
-86.97509765625
-86.0595703125
-82.3974609375
-78.7353515625
-86.97509765625
-81.48193359375
-77.81982421875
-84.228515625
-74.15771484375
-74.15771484375
-69.580078125
-62.255859375
-54.931640625
-56.7626953125
-53.1005859375
-56.7626953125
-58.59375
-52.18505859375
-40.283203125
-34.7900390625
-38.4521484375
-26.55029296875
-21.97265625
-20.1416015625
-24.71923828125
-30.21240234375
-21.97265625
-26.55029296875
-21.97265625
-21.05712890625
-7.32421875
-4.57763671875
-0.91552734375
16.4794921875
19.22607421875
19.22607421875
11.90185546875
29.296875
36.62109375
47.607421875
53.1005859375
62.255859375
67.7490234375
69.580078125
69.580078125
80.56640625
85.14404296875
97.0458984375
105.28564453125
116.27197265625
123.59619140625
135.498046875
143.73779296875
140.9912109375
145.56884765625
151.06201171875
163.87939453125
171.20361328125
172.119140625
180.35888671875
180.35888671875
173.03466796875
180.35888671875
180.35888671875
190.4296875
191.34521484375
205.078125
205.99365234375
203.2470703125
199.5849609375
199.5849609375
203.2470703125
202.33154296875
213.31787109375
202.33154296875
184.9365234375
182.18994140625
182.18994140625
180.35888671875
165.71044921875
153.80859375
146.484375
142.822265625
127.25830078125
109.86328125
105.28564453125
96.13037109375
79.65087890625
65.00244140625
53.1005859375
40.283203125
31.1279296875
12.8173828125
2.74658203125
-4.57763671875
-21.05712890625
-32.958984375
-39.36767578125
-41.19873046875
-44.86083984375
-55.84716796875
-59.50927734375
-74.15771484375
-80.56640625
-76.904296875
-72.32666015625
-72.32666015625
-72.32666015625
-80.56640625
-85.14404296875
-89.7216796875
-80.56640625
-72.32666015625
-75.98876953125
-80.56640625
-82.3974609375
-83.31298828125
-86.0595703125
-86.0595703125
-83.31298828125
-81.48193359375
-84.228515625
-93.3837890625
-96.13037109375
-96.13037109375
-75.98876953125
-81.48193359375
-77.81982421875
-75.98876953125
-75.0732421875
-81.48193359375
-76.904296875
-67.7490234375
-73.2421875
-81.48193359375
-76.904296875
-72.32666015625
-70.49560546875
-64.0869140625
-65.91796875
-76.904296875
-78.7353515625
-74.15771484375
-66.83349609375
-64.0869140625
-75.0732421875
-79.65087890625
-76.904296875
-72.32666015625
-68.66455078125
-74.15771484375
-73.2421875
-67.7490234375
-65.00244140625
-70.49560546875
-78.7353515625
-78.7353515625
-69.580078125
-78.7353515625
-86.0595703125
-81.48193359375
-74.15771484375
-72.32666015625
-79.65087890625
-82.3974609375
-86.97509765625
-97.96142578125
-93.3837890625
-86.0595703125
-80.56640625
-83.31298828125
-80.56640625
-76.904296875
-79.65087890625
-77.81982421875
-81.48193359375
-85.14404296875
-88.80615234375
-88.80615234375
-91.552734375
-85.14404296875
-77.81982421875
-83.31298828125
-84.228515625
-93.3837890625
-89.7216796875
-96.13037109375
-92.46826171875
-95.21484375
-92.46826171875
-91.552734375
-86.97509765625
-87.890625
-99.79248046875
-102.5390625
-97.0458984375
-91.552734375
-84.228515625
-80.56640625
-79.65087890625
-69.580078125
-66.83349609375
-61.34033203125
-54.01611328125
-45.7763671875
-43.02978515625
-34.7900390625
-33.87451171875
-34.7900390625
-34.7900390625
-19.22607421875
-30.21240234375
-40.283203125
-27.4658203125
2.74658203125
21.97265625
29.296875
24.71923828125
25.634765625
23.8037109375
11.90185546875
11.90185546875
18.310546875
21.05712890625
27.4658203125
39.36767578125
35.70556640625
21.97265625
6.40869140625
-7.32421875
-19.22607421875
-21.97265625
-38.4521484375
-47.607421875
-55.84716796875
-64.0869140625
-78.7353515625
-75.98876953125
-86.0595703125
-88.80615234375
-96.13037109375
-103.45458984375
-111.6943359375
-104.3701171875
-108.0322265625
-106.201171875
-107.11669921875
-110.77880859375
-104.3701171875
-108.0322265625
-116.27197265625
-116.27197265625
-126.3427734375
-123.59619140625
-118.10302734375
-112.60986328125
-113.525390625
-120.849609375
-117.1875
-119.93408203125
-115.3564453125
-118.10302734375
-115.3564453125
-106.201171875
-112.60986328125
-111.6943359375
-115.3564453125
-113.525390625
-115.3564453125
-119.93408203125
-130.0048828125
-125.42724609375
-127.25830078125
-146.484375
-165.71044921875
-146.484375
-111.6943359375
-69.580078125
-12.8173828125
85.14404296875
218.81103515625
365.29541015625
540.1611328125
722.35107421875
888.0615234375
1031.79931640625
1153.564453125
1219.482421875
1173.7060546875
935.6689453125
652.77099609375
379.94384765625
176.69677734375
91.552734375
18.310546875
-17.39501953125
-52.18505859375
-76.904296875
-99.79248046875
-106.201171875
-87.890625
-60.4248046875
-41.19873046875
-43.02978515625
-54.01611328125
-57.67822265625
-65.91796875
-67.7490234375
-75.0732421875
-75.0732421875
-69.580078125
-79.65087890625
-89.7216796875
-83.31298828125
-83.31298828125
-78.7353515625
-75.98876953125
-74.15771484375
-85.14404296875
-82.3974609375
-76.904296875
-80.56640625
-83.31298828125
-80.56640625
-78.7353515625
-80.56640625
-75.0732421875
-76.904296875
-75.98876953125
-74.15771484375
-80.56640625
-82.3974609375
-62.255859375
-58.59375
-54.931640625
-49.4384765625
-42.1142578125
-44.86083984375
-48.52294921875
-42.1142578125
-38.4521484375
-44.86083984375
-39.36767578125
-31.1279296875
-25.634765625
-26.55029296875
-29.296875
-23.8037109375
-16.4794921875
-19.22607421875
-22.88818359375
-20.1416015625
-18.310546875
-2.74658203125
-0.91552734375
-5.4931640625
-2.74658203125
5.4931640625
10.986328125
32.04345703125
41.19873046875
50.35400390625
54.01611328125
53.1005859375
52.18505859375
57.67822265625
66.83349609375
68.66455078125
83.31298828125
86.0595703125
85.14404296875
94.29931640625
109.86328125
119.93408203125
119.0185546875
130.92041015625
139.16015625
146.484375
152.89306640625
155.6396484375
159.3017578125
159.3017578125
169.37255859375
176.69677734375
185.85205078125
190.4296875
193.17626953125
208.740234375
214.2333984375
202.33154296875
203.2470703125
210.5712890625
209.65576171875
218.81103515625
219.7265625
218.81103515625
213.31787109375
209.65576171875
205.99365234375
210.5712890625
215.14892578125
204.16259765625
205.99365234375
191.34521484375
178.52783203125
172.119140625
163.87939453125
153.80859375
149.23095703125
129.08935546875
125.42724609375
111.6943359375
100.7080078125
81.48193359375
61.34033203125
54.931640625
44.86083984375
26.55029296875
15.56396484375
9.1552734375
-4.57763671875
-18.310546875
-28.38134765625
-21.05712890625
-23.8037109375
-39.36767578125
-50.35400390625
-54.01611328125
-54.931640625
-62.255859375
-64.0869140625
-68.66455078125
-76.904296875
-76.904296875
-79.65087890625
-77.81982421875
-94.29931640625
-86.97509765625
-72.32666015625
-70.49560546875
-69.580078125
-67.7490234375
-70.49560546875
-81.48193359375
-73.2421875
-78.7353515625
-78.7353515625
-75.98876953125
-70.49560546875
-76.904296875
-81.48193359375
-80.56640625
-69.580078125
-65.91796875
-60.4248046875
-62.255859375
-56.7626953125
-68.66455078125
-69.580078125
-71.4111328125
-68.66455078125
-66.83349609375
-61.34033203125
-57.67822265625
-59.50927734375
-58.59375
-65.00244140625
-71.4111328125
-65.91796875
-75.98876953125
-66.83349609375
-66.83349609375
-63.17138671875
-64.0869140625
-62.255859375
-61.34033203125
-69.580078125
-72.32666015625
-72.32666015625
-71.4111328125
-72.32666015625
-74.15771484375
-71.4111328125
-75.98876953125
-71.4111328125
-70.49560546875
-69.580078125
-78.7353515625
-79.65087890625
-80.56640625
-77.81982421875
-80.56640625
-74.15771484375
-76.904296875
-76.904296875
-85.14404296875
-84.228515625
-94.29931640625
-88.80615234375
-77.81982421875
-79.65087890625
-76.904296875
-66.83349609375
-64.0869140625
-83.31298828125
-80.56640625
-90.63720703125
-86.97509765625
-78.7353515625
-74.15771484375
-83.31298828125
-86.97509765625
-86.97509765625
-85.14404296875
-89.7216796875
-83.31298828125
-86.97509765625
-85.14404296875
-79.65087890625
-81.48193359375
-76.904296875
-76.904296875
-87.890625
-92.46826171875
-88.80615234375
-78.7353515625
-81.48193359375
-77.81982421875
-80.56640625
-83.31298828125
-86.97509765625
-94.29931640625
-92.46826171875
-91.552734375
-92.46826171875
-87.890625
-99.79248046875
-95.21484375
-80.56640625
-78.7353515625
-82.3974609375
-94.29931640625
-93.3837890625
-88.80615234375
-88.80615234375
-91.552734375
-82.3974609375
-81.48193359375
-67.7490234375
-53.1005859375
-41.19873046875
-37.53662109375
-43.02978515625
-34.7900390625
-23.8037109375
-29.296875
-23.8037109375
-22.88818359375
-26.55029296875
-31.1279296875
-22.88818359375
-4.57763671875
9.1552734375
9.1552734375
11.90185546875
21.97265625
21.05712890625
15.56396484375
5.4931640625
17.39501953125
25.634765625
21.97265625
27.4658203125
16.4794921875
5.4931640625
3.662109375
-0.91552734375
-8.23974609375
-27.4658203125
-35.70556640625
-43.9453125
-48.52294921875
-55.84716796875
-63.17138671875
-76.904296875
-82.3974609375
-91.552734375
-99.79248046875
-100.7080078125
-102.5390625
-97.96142578125
-108.94775390625
-108.0322265625
-121.76513671875
-109.86328125
-116.27197265625
-114.44091796875
-113.525390625
-118.10302734375
-112.60986328125
-106.201171875
-109.86328125
-108.0322265625
-103.45458984375
-102.5390625
-103.45458984375
-109.86328125
-112.60986328125
-115.3564453125
-115.3564453125
-113.525390625
-108.94775390625
-108.0322265625
-117.1875
-120.849609375
-115.3564453125
-112.60986328125
-119.93408203125
-139.16015625
-151.06201171875
-162.04833984375
-157.470703125
-120.849609375
-74.15771484375
-15.56396484375
62.255859375
203.2470703125
325.01220703125
482.48291015625
672.91259765625
848.69384765625
996.09375
1135.25390625
1218.56689453125
1203.91845703125
1007.080078125
719.6044921875
458.67919921875
216.064453125
101.62353515625
31.1279296875
0.91552734375
-25.634765625
-49.4384765625
-93.3837890625
-114.44091796875
-88.80615234375
-55.84716796875
-44.86083984375
-39.36767578125
-38.4521484375
-58.59375
-56.7626953125
-67.7490234375
-71.4111328125
-79.65087890625
-80.56640625
-81.48193359375
-81.48193359375
-90.63720703125
-83.31298828125
-86.0595703125
-73.2421875
-70.49560546875
-78.7353515625
-75.98876953125
-70.49560546875
-82.3974609375
-77.81982421875
-75.0732421875
-82.3974609375
-86.97509765625
-75.0732421875
-70.49560546875
-75.98876953125
-72.32666015625
-65.00244140625
-62.255859375
-71.4111328125
-63.17138671875
-62.255859375
-64.0869140625
-55.84716796875
-57.67822265625
-48.52294921875
-43.02978515625
-54.01611328125
-29.296875
-22.88818359375
-30.21240234375
-21.97265625
-42.1142578125
-40.283203125
-44.86083984375
-28.38134765625
-27.4658203125
-19.22607421875
-1.8310546875
-0.91552734375
3.662109375
1.8310546875
-2.74658203125
-9.1552734375
-6.40869140625
6.40869140625
10.986328125
14.6484375
16.4794921875
26.55029296875
36.62109375
52.18505859375
61.34033203125
61.34033203125
70.49560546875
77.81982421875
69.580078125
83.31298828125
86.97509765625
95.21484375
103.45458984375
108.94775390625
129.08935546875
131.8359375
132.75146484375
134.58251953125
143.73779296875
150.146484375
158.38623046875
162.9638671875
169.37255859375
171.20361328125
172.119140625
184.9365234375
184.9365234375
190.4296875
194.091796875
186.767578125
186.767578125
190.4296875
187.68310546875
197.75390625
205.078125
198.66943359375
198.66943359375
205.99365234375
205.99365234375
213.31787109375
205.078125
193.17626953125
194.091796875
184.02099609375
178.52783203125
168.45703125
159.3017578125
140.9912109375
126.3427734375
116.27197265625
98.876953125
95.21484375
88.80615234375
71.4111328125
63.17138671875
53.1005859375
39.36767578125
29.296875
19.22607421875
12.8173828125
-8.23974609375
-15.56396484375
-42.1142578125
-54.931640625
-47.607421875
-45.7763671875
-55.84716796875
-66.83349609375
-63.17138671875
-57.67822265625
-68.66455078125
-72.32666015625
-70.49560546875
-80.56640625
-87.890625
-73.2421875
-72.32666015625
-72.32666015625
-88.80615234375
-76.904296875
-76.904296875
-84.228515625
-80.56640625
-81.48193359375
-87.890625
-92.46826171875
-86.0595703125
-81.48193359375
-84.228515625
-84.228515625
-84.228515625
-99.79248046875
-90.63720703125
-79.65087890625
-82.3974609375
-82.3974609375
-73.2421875
-77.81982421875
-82.3974609375
-90.63720703125
-82.3974609375
-78.7353515625
-83.31298828125
-89.7216796875
-86.0595703125
-76.904296875
-76.904296875
-81.48193359375
-91.552734375
-69.580078125
-77.81982421875
-80.56640625
-75.0732421875
-82.3974609375
-78.7353515625
-74.15771484375
-74.15771484375
-86.0595703125
-87.890625
-84.228515625
-98.876953125
-95.21484375
-97.0458984375
-96.13037109375
-92.46826171875
-85.14404296875
-84.228515625
-83.31298828125
-91.552734375
-94.29931640625
-96.13037109375
-96.13037109375
-98.876953125
-97.0458984375
-97.96142578125
-101.62353515625
-113.525390625
-112.60986328125
-109.86328125
-106.201171875
-97.96142578125
-94.29931640625
-98.876953125
-99.79248046875
-111.6943359375
-114.44091796875
-100.7080078125
-100.7080078125
-108.94775390625
-112.60986328125
-105.28564453125
-102.5390625
-113.525390625
-108.94775390625
-107.11669921875
-108.94775390625
-104.3701171875
-109.86328125
-102.5390625
-97.0458984375
-108.94775390625
-106.201171875
-103.45458984375
-98.876953125
-111.6943359375
-109.86328125
-103.45458984375
-107.11669921875
-102.5390625
-112.60986328125
-103.45458984375
-96.13037109375
-94.29931640625
-89.7216796875
-89.7216796875
-82.3974609375
-69.580078125
-63.17138671875
-68.66455078125
-63.17138671875
-64.0869140625
-61.34033203125
-58.59375
-70.49560546875
-66.83349609375
-71.4111328125
-43.02978515625
-10.986328125
-9.1552734375
-4.57763671875
-13.73291015625
-1.8310546875
0
-25.634765625
-17.39501953125
-3.662109375
-4.57763671875
-5.4931640625
4.57763671875
1.8310546875
-4.57763671875
-21.05712890625
-26.55029296875
-28.38134765625
-54.01611328125
-58.59375
-56.7626953125
-81.48193359375
-92.46826171875
-96.13037109375
-116.27197265625
-119.0185546875
-117.1875
-121.76513671875
-110.77880859375
-115.3564453125
-118.10302734375
-122.6806640625
-123.59619140625
-120.849609375
-128.173828125
-126.3427734375
-130.92041015625
-135.498046875
-141.90673828125
-130.0048828125
-135.498046875
-134.58251953125
-137.3291015625
-130.92041015625
-130.0048828125
-130.92041015625
-143.73779296875
-154.72412109375
-151.9775390625
-146.484375
-140.9912109375
-143.73779296875
-134.58251953125
-128.173828125
-129.08935546875
-133.6669921875
-145.56884765625
-144.6533203125
-152.89306640625
-171.20361328125
-187.68310546875
-184.02099609375
-140.07568359375
-89.7216796875
-24.71923828125
80.56640625
227.96630859375
368.0419921875
541.07666015625
721.435546875
877.99072265625
1015.31982421875
1128.84521484375
1182.861328125
1127.01416015625
896.30126953125
617.98095703125
342.4072265625
138.24462890625
56.7626953125
10.986328125
-10.07080078125
-14.6484375
-52.18505859375
-81.48193359375
-127.25830078125
-149.23095703125
-121.76513671875
-94.29931640625
-86.97509765625
-86.97509765625
-84.228515625
-85.14404296875
-94.29931640625
-93.3837890625
-98.876953125
-101.62353515625
-107.11669921875
-107.11669921875
-107.11669921875
-108.94775390625
-107.11669921875
-111.6943359375
-110.77880859375
-102.5390625
-116.27197265625
-117.1875
-108.0322265625
-92.46826171875
-98.876953125
-96.13037109375
-95.21484375
-117.1875
-108.94775390625
-102.5390625
-102.5390625
-93.3837890625
-89.7216796875
-86.0595703125
-85.14404296875
-86.97509765625
-77.81982421875
-71.4111328125
-68.66455078125
-73.2421875
-71.4111328125
-73.2421875
-69.580078125
-74.15771484375
-65.91796875
-61.34033203125
-62.255859375
-64.0869140625
-54.931640625
-56.7626953125
-58.59375
-54.931640625
-41.19873046875
-26.55029296875
-25.634765625
-4.57763671875
1.8310546875
-8.23974609375
-10.986328125
-13.73291015625
-9.1552734375
-5.4931640625
8.23974609375
4.57763671875
15.56396484375
22.88818359375
25.634765625
22.88818359375
21.97265625
38.4521484375
57.67822265625
70.49560546875
66.83349609375
74.15771484375
78.7353515625
84.228515625
96.13037109375
100.7080078125
109.86328125
99.79248046875
91.552734375
113.525390625
106.201171875
122.6806640625
133.6669921875
134.58251953125
141.90673828125
146.484375
154.72412109375
154.72412109375
157.470703125
166.6259765625
165.71044921875
163.87939453125
162.04833984375
157.470703125
164.794921875
167.54150390625
162.04833984375
163.87939453125
165.71044921875
155.6396484375
146.484375
146.484375
150.146484375
147.39990234375
126.3427734375
119.0185546875
103.45458984375
88.80615234375
85.14404296875
69.580078125
54.931640625
43.9453125
31.1279296875
15.56396484375
14.6484375
1.8310546875
-25.634765625
-33.87451171875
-32.958984375
-32.04345703125
-40.283203125
-41.19873046875
-45.7763671875
-58.59375
-65.00244140625
-74.15771484375
-73.2421875
-82.3974609375
-87.890625
-89.7216796875
-106.201171875
-103.45458984375
-102.5390625
-99.79248046875
-107.11669921875
-113.525390625
-103.45458984375
-99.79248046875
-97.96142578125
-112.60986328125
-100.7080078125
-101.62353515625
-109.86328125
-107.11669921875
-95.21484375
-92.46826171875
-86.97509765625
-93.3837890625
-91.552734375
-91.552734375
-89.7216796875
-95.21484375
-101.62353515625
-92.46826171875
-95.21484375
-106.201171875
-106.201171875
-112.60986328125
-97.96142578125
-94.29931640625
-97.96142578125
-94.29931640625
-97.96142578125
-87.890625
-93.3837890625
-103.45458984375
-99.79248046875
-95.21484375
-98.876953125
-97.0458984375
-97.0458984375
-98.876953125
-93.3837890625
-111.6943359375
-108.94775390625
-117.1875
-107.11669921875
-98.876953125
-90.63720703125
-92.46826171875
-93.3837890625
-100.7080078125
-97.0458984375
-91.552734375
-95.21484375
-96.13037109375
-110.77880859375
-112.60986328125
-111.6943359375
-113.525390625
-104.3701171875
-92.46826171875
-104.3701171875
-105.28564453125
-103.45458984375
-104.3701171875
-110.77880859375
-117.1875
-119.93408203125
-119.0185546875
-112.60986328125
-117.1875
-111.6943359375
-110.77880859375
-108.0322265625
-115.3564453125
-120.849609375
-117.1875
-116.27197265625
-119.93408203125
-130.92041015625
-130.0048828125
-132.75146484375
-124.51171875
-125.42724609375
-126.3427734375
-124.51171875
-132.75146484375
-132.75146484375
-136.41357421875
-130.0048828125
-120.849609375
-118.10302734375
-114.44091796875
-115.3564453125
-111.6943359375
-97.0458984375
-87.890625
-82.3974609375
-83.31298828125
-73.2421875
-61.34033203125
-61.34033203125
-62.255859375
-64.0869140625
-65.91796875
-75.0732421875
-61.34033203125
-34.7900390625
-24.71923828125
-22.88818359375
-18.310546875
-10.986328125
-18.310546875
-16.4794921875
-25.634765625
-32.958984375
-22.88818359375
-15.56396484375
-14.6484375
-17.39501953125
-28.38134765625
-28.38134765625
-26.55029296875
-44.86083984375
-56.7626953125
-76.904296875
-74.15771484375
-88.80615234375
-89.7216796875
-97.96142578125
-111.6943359375
-108.94775390625
-111.6943359375
-119.0185546875
-124.51171875
-133.6669921875
-134.58251953125
-135.498046875
-143.73779296875
-132.75146484375
-128.173828125
-120.849609375
-126.3427734375
-132.75146484375
-136.41357421875
-130.0048828125
-133.6669921875
-138.24462890625
-135.498046875
-129.08935546875
-137.3291015625
-141.90673828125
-128.173828125
-129.08935546875
-141.90673828125
-140.9912109375
-140.9912109375
-141.90673828125
-140.9912109375
-138.24462890625
-139.16015625
-141.90673828125
-143.73779296875
-143.73779296875
-156.55517578125
-164.794921875
-183.10546875
-178.52783203125
-149.23095703125
-110.77880859375
-71.4111328125
39.36767578125
182.18994140625
319.51904296875
466.9189453125
645.44677734375
803.8330078125
961.3037109375
1105.95703125
1192.93212890625
1181.94580078125
989.68505859375
713.19580078125
454.1015625
211.48681640625
94.29931640625
31.1279296875
-2.74658203125
-17.39501953125
-46.69189453125
-84.228515625
-126.3427734375
-130.0048828125
-103.45458984375
-86.0595703125
-73.2421875
-70.49560546875
-76.904296875
-88.80615234375
-97.0458984375
-89.7216796875
-90.63720703125
-95.21484375
-94.29931640625
-92.46826171875
-100.7080078125
-106.201171875
-115.3564453125
-102.5390625
-111.6943359375
-112.60986328125
-112.60986328125
-108.94775390625
-105.28564453125
-94.29931640625
-106.201171875
-96.13037109375
-86.97509765625
-91.552734375
-90.63720703125
-92.46826171875
-97.96142578125
-97.0458984375
-79.65087890625
-74.15771484375
-68.66455078125
-72.32666015625
-85.14404296875
-78.7353515625
-69.580078125
-67.7490234375
-61.34033203125
-55.84716796875
-63.17138671875
-58.59375
-45.7763671875
-51.26953125
-46.69189453125
-43.02978515625
-44.86083984375
-37.53662109375
-40.283203125
-30.21240234375
-30.21240234375
-37.53662109375
-30.21240234375
-21.05712890625
-19.22607421875
-20.1416015625
-23.8037109375
-13.73291015625
5.4931640625
16.4794921875
13.73291015625
17.39501953125
27.4658203125
39.36767578125
51.26953125
61.34033203125
52.18505859375
53.1005859375
61.34033203125
69.580078125
73.2421875
85.14404296875
91.552734375
103.45458984375
113.525390625
109.86328125
116.27197265625
119.93408203125
130.0048828125
144.6533203125
142.822265625
148.3154296875
147.39990234375
149.23095703125
149.23095703125
167.54150390625
171.20361328125
170.2880859375
173.03466796875
172.119140625
183.10546875
186.767578125
181.2744140625
179.443359375
181.2744140625
186.767578125
185.85205078125
175.78125
175.78125
169.37255859375
163.87939453125
156.55517578125
152.89306640625
149.23095703125
140.07568359375
133.6669921875
131.8359375
115.3564453125
102.5390625
102.5390625
94.29931640625
73.2421875
66.83349609375
41.19873046875
30.21240234375
18.310546875
1.8310546875
2.74658203125
0
-16.4794921875
-27.4658203125
-36.62109375
-34.7900390625
-45.7763671875
-54.01611328125
-64.0869140625
-65.00244140625
-77.81982421875
-92.46826171875
-91.552734375
-86.97509765625
-86.97509765625
-77.81982421875
-86.0595703125
-94.29931640625
-96.13037109375
-98.876953125
-90.63720703125
-84.228515625
-86.97509765625
-90.63720703125
-96.13037109375
-97.96142578125
-101.62353515625
-92.46826171875
-85.14404296875
-88.80615234375
-84.228515625
-88.80615234375
-78.7353515625
-79.65087890625
-86.0595703125
-82.3974609375
-79.65087890625
-79.65087890625
-90.63720703125
-98.876953125
-86.97509765625
-79.65087890625
-85.14404296875
-78.7353515625
-81.48193359375
-81.48193359375
-75.0732421875
-76.904296875
-82.3974609375
-85.14404296875
-78.7353515625
-78.7353515625
-84.228515625
-85.14404296875
-83.31298828125
-85.14404296875
-88.80615234375
-98.876953125
-90.63720703125
-84.228515625
-73.2421875
-70.49560546875
-81.48193359375
-81.48193359375
-86.97509765625
-103.45458984375
-91.552734375
-83.31298828125
-87.890625
-91.552734375
-89.7216796875
-69.580078125
-68.66455078125
-75.0732421875
-84.228515625
-86.97509765625
-90.63720703125
-86.97509765625
-94.29931640625
-95.21484375
-94.29931640625
-96.13037109375
-96.13037109375
-95.21484375
-90.63720703125
-87.890625
-101.62353515625
-107.11669921875
-104.3701171875
-108.0322265625
-106.201171875
-104.3701171875
-107.11669921875
-95.21484375
-93.3837890625
-95.21484375
-107.11669921875
-105.28564453125
-94.29931640625
-101.62353515625
-96.13037109375
-95.21484375
-98.876953125
-98.876953125
-97.0458984375
-87.890625
-90.63720703125
-84.228515625
-88.80615234375
-96.13037109375
-97.96142578125
-90.63720703125
-75.98876953125
-65.91796875
-62.255859375
-51.26953125
-36.62109375
-41.19873046875
-54.931640625
-48.52294921875
-40.283203125
-42.1142578125
-43.9453125
-49.4384765625
-46.69189453125
-33.87451171875
-2.74658203125
10.07080078125
11.90185546875
1.8310546875
-1.8310546875
7.32421875
10.07080078125
18.310546875
7.32421875
5.4931640625
8.23974609375
20.1416015625
10.986328125
6.40869140625
-4.57763671875
-11.90185546875
-25.634765625
-46.69189453125
-46.69189453125
-49.4384765625
-66.83349609375
-71.4111328125
-87.890625
-97.0458984375
-109.86328125
-108.94775390625
-105.28564453125
-105.28564453125
-106.201171875
-111.6943359375
-109.86328125
-110.77880859375
-104.3701171875
-115.3564453125
-120.849609375
-126.3427734375
-121.76513671875
-123.59619140625
-126.3427734375
-128.173828125
-119.93408203125
-110.77880859375
-117.1875
-125.42724609375
-128.173828125
-128.173828125
-118.10302734375
-108.0322265625
-111.6943359375
-119.0185546875
-124.51171875
-120.849609375
-124.51171875
-117.1875
-117.1875
-127.25830078125
-130.92041015625
-131.8359375
-140.07568359375
-163.87939453125
-162.9638671875
-122.6806640625
-68.66455078125
-16.4794921875
89.7216796875
215.14892578125
357.0556640625
528.25927734375
715.02685546875
877.0751953125
1009.82666015625
1138.916015625
1205.74951171875
1166.3818359375
925.59814453125
642.7001953125
379.94384765625
173.03466796875
87.890625
21.05712890625
-6.40869140625
-19.22607421875
-48.52294921875
-90.63720703125
-108.94775390625
-100.7080078125
-64.0869140625
-51.26953125
-57.67822265625
-56.7626953125
-65.00244140625
-68.66455078125
-74.15771484375
-64.0869140625
-70.49560546875
-77.81982421875
-91.552734375
-86.0595703125
-85.14404296875
-76.904296875
-86.97509765625
-77.81982421875
-83.31298828125
-82.3974609375
-86.0595703125
-82.3974609375
-86.97509765625
-84.228515625
-89.7216796875
-82.3974609375
-75.0732421875
-65.91796875
-66.83349609375
-68.66455078125
-74.15771484375
-74.15771484375
-62.255859375
-54.931640625
-54.01611328125
-65.91796875
-67.7490234375
-65.91796875
-60.4248046875
-66.83349609375
-63.17138671875
-46.69189453125
-43.9453125
-51.26953125
-35.70556640625
-30.21240234375
-24.71923828125
-26.55029296875
-13.73291015625
-10.07080078125
-14.6484375
-23.8037109375
-12.8173828125
-11.90185546875
-10.986328125
-3.662109375
10.07080078125
8.23974609375
20.1416015625
24.71923828125
25.634765625
27.4658203125
21.05712890625
31.1279296875
44.86083984375
47.607421875
54.01611328125
61.34033203125
72.32666015625
72.32666015625
81.48193359375
89.7216796875
103.45458984375
109.86328125
118.10302734375
120.849609375
121.76513671875
130.0048828125
139.16015625
144.6533203125
162.04833984375
162.04833984375
167.54150390625
174.86572265625
176.69677734375
181.2744140625
184.02099609375
184.02099609375
194.091796875
190.4296875
191.34521484375
197.75390625
210.5712890625
215.14892578125
216.97998046875
213.31787109375
198.66943359375
207.82470703125
202.33154296875
202.33154296875
203.2470703125
205.078125
203.2470703125
200.50048828125
184.9365234375
164.794921875
149.23095703125
157.470703125
158.38623046875
142.822265625
127.25830078125
118.10302734375
97.96142578125
88.80615234375
69.580078125
55.84716796875
49.4384765625
25.634765625
0.91552734375
10.07080078125
2.74658203125
-8.23974609375
-13.73291015625
-19.22607421875
-20.1416015625
-34.7900390625
-47.607421875
-51.26953125
-56.7626953125
-70.49560546875
-67.7490234375
-70.49560546875
-86.0595703125
-89.7216796875
-75.0732421875
-81.48193359375
-75.98876953125
-77.81982421875
-79.65087890625
-75.98876953125
-76.904296875
-71.4111328125
-84.228515625
-94.29931640625
-100.7080078125
-100.7080078125
-89.7216796875
-90.63720703125
-89.7216796875
-86.97509765625
-81.48193359375
-73.2421875
-74.15771484375
-72.32666015625
-65.91796875
-69.580078125
-73.2421875
-65.91796875
-73.2421875
-73.2421875
-77.81982421875
-75.98876953125
-77.81982421875
-76.904296875
-83.31298828125
-72.32666015625
-70.49560546875
-75.98876953125
-74.15771484375
-75.98876953125
-71.4111328125
-80.56640625
-84.228515625
-78.7353515625
-77.81982421875
-88.80615234375
-95.21484375
-90.63720703125
-84.228515625
-72.32666015625
-75.0732421875
-74.15771484375
-77.81982421875
-65.91796875
-61.34033203125
-74.15771484375
-95.21484375
-101.62353515625
-85.14404296875
-82.3974609375
-88.80615234375
-77.81982421875
-70.49560546875
-83.31298828125
-97.0458984375
-98.876953125
-97.96142578125
-84.228515625
-81.48193359375
-75.98876953125
-78.7353515625
-77.81982421875
-81.48193359375
-80.56640625
-78.7353515625
-77.81982421875
-86.0595703125
-85.14404296875
-91.552734375
-94.29931640625
-86.0595703125
-83.31298828125
-96.13037109375
-100.7080078125
-95.21484375
-93.3837890625
-94.29931640625
-95.21484375
-95.21484375
-87.890625
-90.63720703125
-90.63720703125
-97.0458984375
-97.96142578125
-97.96142578125
-97.96142578125
-91.552734375
-92.46826171875
-108.0322265625
-108.94775390625
-99.79248046875
-97.96142578125
-94.29931640625
-93.3837890625
-100.7080078125
-108.94775390625
-104.3701171875
-98.876953125
-86.0595703125
-68.66455078125
-56.7626953125
-45.7763671875
-35.70556640625
-43.02978515625
-48.52294921875
-39.36767578125
-34.7900390625
-28.38134765625
-21.97265625
-29.296875
-26.55029296875
-13.73291015625
4.57763671875
9.1552734375
15.56396484375
10.07080078125
15.56396484375
15.56396484375
8.23974609375
8.23974609375
6.40869140625
12.8173828125
22.88818359375
11.90185546875
2.74658203125
-8.23974609375
-17.39501953125
-24.71923828125
-44.86083984375
-54.01611328125
-41.19873046875
-50.35400390625
-65.00244140625
-72.32666015625
-78.7353515625
-95.21484375
-107.11669921875
-118.10302734375
-126.3427734375
-111.6943359375
-114.44091796875
-117.1875
-108.94775390625
-109.86328125
-118.10302734375
-113.525390625
-101.62353515625
-114.44091796875
-128.173828125
-119.0185546875
-104.3701171875
-103.45458984375
-115.3564453125
-110.77880859375
-105.28564453125
-105.28564453125
-116.27197265625
-111.6943359375
-106.201171875
-115.3564453125
-120.849609375
-130.0048828125
-122.6806640625
-119.93408203125
-122.6806640625
-132.75146484375
-129.08935546875
-130.92041015625
-135.498046875
-136.41357421875
-160.21728515625
-166.6259765625
-151.9775390625
-117.1875
-61.34033203125
0.91552734375
131.8359375
265.5029296875
420.22705078125
594.17724609375
772.705078125
925.59814453125
1074.8291015625
1173.7060546875
1211.24267578125
1113.28125
848.69384765625
566.71142578125
287.4755859375
130.0048828125
49.4384765625
2.74658203125
-19.22607421875
-49.4384765625
-80.56640625
-108.94775390625
-108.0322265625
-97.96142578125
-59.50927734375
-49.4384765625
-63.17138671875
-70.49560546875
-71.4111328125
-77.81982421875
-76.904296875
-59.50927734375
-70.49560546875
-75.98876953125
-76.904296875
-80.56640625
-89.7216796875
-92.46826171875
-87.890625
-86.0595703125
-88.80615234375
-89.7216796875
-77.81982421875
-76.904296875
-84.228515625
-76.904296875
-68.66455078125
-83.31298828125
-75.98876953125
-61.34033203125
-73.2421875
-76.904296875
-73.2421875
-67.7490234375
-68.66455078125
-65.91796875
-65.91796875
-58.59375
-57.67822265625
-54.931640625
-49.4384765625
-48.52294921875
-43.9453125
-46.69189453125
-43.02978515625
-40.283203125
-33.87451171875
-33.87451171875
-30.21240234375
-17.39501953125
-19.22607421875
-15.56396484375
-14.6484375
-0.91552734375
-5.4931640625
-3.662109375
-8.23974609375
0.91552734375
5.4931640625
13.73291015625
10.07080078125
20.1416015625
28.38134765625
32.958984375
43.02978515625
54.01611328125
54.931640625
66.83349609375
75.0732421875
75.98876953125
75.0732421875
78.7353515625
84.228515625
95.21484375
96.13037109375
99.79248046875
105.28564453125
125.42724609375
134.58251953125
133.6669921875
133.6669921875
138.24462890625
149.23095703125
160.21728515625
171.20361328125
171.20361328125
175.78125
173.9501953125
185.85205078125
182.18994140625
198.66943359375
201.416015625
208.740234375
206.9091796875
210.5712890625
210.5712890625
213.31787109375
212.40234375
209.65576171875
200.50048828125
205.078125
201.416015625
209.65576171875
211.48681640625
216.97998046875
211.48681640625
200.50048828125
195.00732421875
184.9365234375
166.6259765625
166.6259765625
151.9775390625
126.3427734375
108.94775390625
91.552734375
84.228515625
75.0732421875
57.67822265625
46.69189453125
44.86083984375
28.38134765625
5.4931640625
-6.40869140625
-24.71923828125
-29.296875
-34.7900390625
-48.52294921875
-52.18505859375
-53.1005859375
-60.4248046875
-72.32666015625
-70.49560546875
-67.7490234375
-71.4111328125
-75.0732421875
-78.7353515625
-77.81982421875
-86.0595703125
-89.7216796875
-90.63720703125
-99.79248046875
-93.3837890625
-91.552734375
-89.7216796875
-83.31298828125
-92.46826171875
-89.7216796875
-91.552734375
-100.7080078125
-97.0458984375
-88.80615234375
-91.552734375
-95.21484375
-96.13037109375
-87.890625
-85.14404296875
-75.98876953125
-78.7353515625
-81.48193359375
-75.98876953125
-75.0732421875
-81.48193359375
-84.228515625
-83.31298828125
-81.48193359375
-90.63720703125
-90.63720703125
-78.7353515625
-75.98876953125
-70.49560546875
-81.48193359375
-79.65087890625
-75.98876953125
-78.7353515625
-85.14404296875
-78.7353515625
-80.56640625
-75.0732421875
-82.3974609375
-88.80615234375
-84.228515625
-80.56640625
-82.3974609375
-78.7353515625
-86.0595703125
-93.3837890625
-102.5390625
-105.28564453125
-101.62353515625
-102.5390625
-90.63720703125
-87.890625
-81.48193359375
-74.15771484375
-82.3974609375
-94.29931640625
-97.96142578125
-95.21484375
-93.3837890625
-80.56640625
-90.63720703125
-97.96142578125
-104.3701171875
-96.13037109375
-105.28564453125
-101.62353515625
-97.96142578125
-101.62353515625
-108.94775390625
-109.86328125
-112.60986328125
-108.0322265625
-118.10302734375
-112.60986328125
-117.1875
-111.6943359375
-105.28564453125
-101.62353515625
-99.79248046875
-97.0458984375
-100.7080078125
-101.62353515625
-103.45458984375
-107.11669921875
-118.10302734375
-109.86328125
-116.27197265625
-114.44091796875
-108.0322265625
-97.96142578125
-94.29931640625
-91.552734375
-91.552734375
-86.0595703125
-75.0732421875
-67.7490234375
-60.4248046875
-64.0869140625
-63.17138671875
-60.4248046875
-54.01611328125
-52.18505859375
-50.35400390625
-60.4248046875
-75.0732421875
-60.4248046875
-34.7900390625
-20.1416015625
-21.05712890625
-22.88818359375
-15.56396484375
-7.32421875
4.57763671875
1.8310546875
0
1.8310546875
0
-10.07080078125
-14.6484375
-13.73291015625
-19.22607421875
-24.71923828125
-30.21240234375
-47.607421875
-60.4248046875
-56.7626953125
-75.0732421875
-90.63720703125
-98.876953125
-97.96142578125
-109.86328125
-119.93408203125
-121.76513671875
-124.51171875
-132.75146484375
-131.8359375
-133.6669921875
-135.498046875
-138.24462890625
-131.8359375
-129.08935546875
-135.498046875
-130.0048828125
-137.3291015625
-141.90673828125
-139.16015625
-143.73779296875
-127.25830078125
-136.41357421875
-133.6669921875
-128.173828125
-126.3427734375
-130.92041015625
-136.41357421875
-139.16015625
-135.498046875
-132.75146484375
-145.56884765625
-144.6533203125
-150.146484375
-140.07568359375
-145.56884765625
-158.38623046875
-181.2744140625
-180.35888671875
-188.5986328125
-181.2744140625
-132.75146484375
-93.3837890625
-49.4384765625
53.1005859375
207.82470703125
336.9140625
499.8779296875
690.3076171875
849.609375
998.84033203125
1136.16943359375
1206.6650390625
1182.861328125
972.2900390625
685.72998046875
410.15625
173.9501953125
79.65087890625
6.40869140625
-38.4521484375
-46.69189453125
-58.59375
-87.890625
-125.42724609375
-136.41357421875
-123.59619140625
-92.46826171875
-84.228515625
-80.56640625
-89.7216796875
-96.13037109375
-104.3701171875
-97.0458984375
-101.62353515625
-104.3701171875
-104.3701171875
-97.96142578125
-120.849609375
-119.0185546875
-119.0185546875
-112.60986328125
-110.77880859375
-109.86328125
-99.79248046875
-103.45458984375
-110.77880859375
-108.94775390625
-114.44091796875
-109.86328125
-105.28564453125
-102.5390625
-102.5390625
-99.79248046875
-91.552734375
-90.63720703125
-89.7216796875
-89.7216796875
-85.14404296875
-84.228515625
-80.56640625
-91.552734375
-80.56640625
-68.66455078125
-71.4111328125
-75.0732421875
-69.580078125
-68.66455078125
-44.86083984375
-44.86083984375
-61.34033203125
-62.255859375
-58.59375
-41.19873046875
-41.19873046875
-38.4521484375
-32.958984375
-28.38134765625
-20.1416015625
-18.310546875
-10.07080078125
-11.90185546875
-7.32421875
-10.986328125
0.91552734375
-6.40869140625
-7.32421875
-1.8310546875
6.40869140625
14.6484375
23.8037109375
32.958984375
31.1279296875
38.4521484375
62.255859375
63.17138671875
65.91796875
73.2421875
81.48193359375
87.890625
97.0458984375
108.0322265625
119.0185546875
127.25830078125
135.498046875
139.16015625
145.56884765625
148.3154296875
150.146484375
157.470703125
158.38623046875
155.6396484375
163.87939453125
165.71044921875
175.78125
168.45703125
171.20361328125
184.02099609375
178.52783203125
176.69677734375
180.35888671875
173.03466796875
173.03466796875
173.03466796875
175.78125
167.54150390625
165.71044921875
159.3017578125
145.56884765625
137.3291015625
128.173828125
119.0185546875
114.44091796875
105.28564453125
101.62353515625
90.63720703125
72.32666015625
55.84716796875
34.7900390625
23.8037109375
15.56396484375
7.32421875
-8.23974609375
-8.23974609375
-16.4794921875
-35.70556640625
-51.26953125
-64.0869140625
-72.32666015625
-70.49560546875
-66.83349609375
-75.98876953125
-79.65087890625
-88.80615234375
-85.14404296875
-93.3837890625
-93.3837890625
-95.21484375
-99.79248046875
-101.62353515625
-95.21484375
-108.94775390625
-119.0185546875
-118.10302734375
-119.93408203125
-112.60986328125
-118.10302734375
-124.51171875
-115.3564453125
-102.5390625
-111.6943359375
-118.10302734375
-116.27197265625
-103.45458984375
-102.5390625
-114.44091796875
-107.11669921875
-122.6806640625
-115.3564453125
-106.201171875
-100.7080078125
-97.0458984375
-98.876953125
-91.552734375
-92.46826171875
-95.21484375
-105.28564453125
-103.45458984375
-99.79248046875
-100.7080078125
-105.28564453125
-97.96142578125
-99.79248046875
-101.62353515625
-100.7080078125
-99.79248046875
-102.5390625
-105.28564453125
-108.0322265625
-109.86328125
-115.3564453125
-114.44091796875
-110.77880859375
-103.45458984375
-100.7080078125
-99.79248046875
-102.5390625
-98.876953125
-96.13037109375
-104.3701171875
-108.0322265625
-108.94775390625
-108.94775390625
-110.77880859375
-125.42724609375
-115.3564453125
-116.27197265625
-121.76513671875
-112.60986328125
-104.3701171875
-110.77880859375
-113.525390625
-111.6943359375
-111.6943359375
-109.86328125
-112.60986328125
-114.44091796875
-110.77880859375
-113.525390625
-112.60986328125
-114.44091796875
-126.3427734375
-121.76513671875
-115.3564453125
-116.27197265625
-109.86328125
-102.5390625
-100.7080078125
-97.96142578125
-92.46826171875
-86.97509765625
-87.890625
-78.7353515625
-73.2421875
-79.65087890625
-86.0595703125
-93.3837890625
-81.48193359375
-75.0732421875
-69.580078125
-53.1005859375
-47.607421875
-45.7763671875
-42.1142578125
-43.9453125
-44.86083984375
-20.1416015625
-21.05712890625
-24.71923828125
-26.55029296875
-15.56396484375
-5.4931640625
0.91552734375
-15.56396484375
-24.71923828125
-24.71923828125
-34.7900390625
-51.26953125
-66.83349609375
-82.3974609375
-88.80615234375
-87.890625
-97.96142578125
-110.77880859375
-116.27197265625
-123.59619140625
-126.3427734375
-129.08935546875
-138.24462890625
-137.3291015625
-138.24462890625
-136.41357421875
-137.3291015625
-136.41357421875
-146.484375
-143.73779296875
-149.23095703125
-147.39990234375
-143.73779296875
-143.73779296875
-149.23095703125
-162.04833984375
-151.9775390625
-139.16015625
-143.73779296875
-140.9912109375
-147.39990234375
-155.6396484375
-162.9638671875
-149.23095703125
-142.822265625
-153.80859375
-154.72412109375
-158.38623046875
-152.89306640625
-148.3154296875
-151.9775390625
-161.1328125
-151.9775390625
-169.37255859375
-194.091796875
-182.18994140625
-150.146484375
-115.3564453125
-44.86083984375
56.7626953125
186.767578125
325.927734375
492.5537109375
668.3349609375
833.1298828125
991.51611328125
1127.01416015625
1192.93212890625
1173.7060546875
990.6005859375
715.9423828125
441.2841796875
209.65576171875
97.0458984375
25.634765625
-14.6484375
-29.296875
-51.26953125
-81.48193359375
-129.08935546875
-161.1328125
-144.6533203125
-119.0185546875
-111.6943359375
-103.45458984375
-97.0458984375
-93.3837890625
-98.876953125
-101.62353515625
-97.0458984375
-113.525390625
-122.6806640625
-129.08935546875
-118.10302734375
-107.11669921875
-108.94775390625
-121.76513671875
-112.60986328125
-103.45458984375
-107.11669921875
-111.6943359375
-110.77880859375
-120.849609375
-119.0185546875
-109.86328125
-100.7080078125
-112.60986328125
-120.849609375
-109.86328125
-104.3701171875
-100.7080078125
-101.62353515625
-110.77880859375
-107.11669921875
-97.96142578125
-93.3837890625
-89.7216796875
-83.31298828125
-84.228515625
-79.65087890625
-70.49560546875
-70.49560546875
-70.49560546875
-64.0869140625
-58.59375
-63.17138671875
-70.49560546875
-69.580078125
-76.904296875
-61.34033203125
-52.18505859375
-50.35400390625
-42.1142578125
-36.62109375
-41.19873046875
-45.7763671875
-32.04345703125
-32.04345703125
-31.1279296875
-21.97265625
-4.57763671875
0.91552734375
8.23974609375
12.8173828125
13.73291015625
28.38134765625
32.04345703125
36.62109375
40.283203125
40.283203125
38.4521484375
48.52294921875
58.59375
65.91796875
69.580078125
78.7353515625
86.97509765625
103.45458984375
113.525390625
115.3564453125
119.93408203125
129.08935546875
124.51171875
129.08935546875
139.16015625
148.3154296875
156.55517578125
156.55517578125
159.3017578125
164.794921875
162.04833984375
154.72412109375
158.38623046875
154.72412109375
153.80859375
158.38623046875
161.1328125
158.38623046875
157.470703125
151.9775390625
134.58251953125
137.3291015625
126.3427734375
124.51171875
121.76513671875
115.3564453125
108.0322265625
97.0458984375
91.552734375
75.98876953125
65.91796875
51.26953125
32.04345703125
24.71923828125
11.90185546875
9.1552734375
-8.23974609375
-16.4794921875
-30.21240234375
-48.52294921875
-54.931640625
-60.4248046875
-78.7353515625
-82.3974609375
-84.228515625
-86.0595703125
-88.80615234375
-85.14404296875
-89.7216796875
-92.46826171875
-100.7080078125
-108.94775390625
-113.525390625
-119.93408203125
-122.6806640625
-116.27197265625
-128.173828125
-121.76513671875
-114.44091796875
-113.525390625
-101.62353515625
-98.876953125
-110.77880859375
-110.77880859375
-110.77880859375
-110.77880859375
-115.3564453125
-107.11669921875
-108.0322265625
-103.45458984375
-110.77880859375
-107.11669921875
-105.28564453125
-109.86328125
-107.11669921875
-109.86328125
-109.86328125
-123.59619140625
-110.77880859375
-111.6943359375
-115.3564453125
-113.525390625
-108.0322265625
-98.876953125
-102.5390625
-111.6943359375
-112.60986328125
-98.876953125
-102.5390625
-104.3701171875
-101.62353515625
-99.79248046875
-97.0458984375
-103.45458984375
-102.5390625
-108.0322265625
-105.28564453125
-108.0322265625
-101.62353515625
-99.79248046875
-98.876953125
-101.62353515625
-106.201171875
-107.11669921875
-108.0322265625
-110.77880859375
-107.11669921875
-103.45458984375
-94.29931640625
-101.62353515625
-110.77880859375
-114.44091796875
-116.27197265625
-107.11669921875
-98.876953125
-100.7080078125
-103.45458984375
-105.28564453125
-104.3701171875
-108.0322265625
-118.10302734375
-116.27197265625
-121.76513671875
-116.27197265625
-115.3564453125
-116.27197265625
-127.25830078125
-118.10302734375
-124.51171875
-129.08935546875
-121.76513671875
-117.1875
-119.0185546875
-112.60986328125
-101.62353515625
-99.79248046875
-95.21484375
-88.80615234375
-80.56640625
-81.48193359375
-77.81982421875
-69.580078125
-66.83349609375
-74.15771484375
-80.56640625
-77.81982421875
-69.580078125
-61.34033203125
-54.01611328125
-39.36767578125
-21.97265625
-17.39501953125
-6.40869140625
-4.57763671875
-6.40869140625
-7.32421875
-2.74658203125
-10.986328125
-5.4931640625
0
-1.8310546875
-6.40869140625
-16.4794921875
-19.22607421875
-22.88818359375
-39.36767578125
-50.35400390625
-63.17138671875
-75.98876953125
-86.97509765625
-90.63720703125
-102.5390625
-112.60986328125
-109.86328125
-128.173828125
-119.93408203125
-124.51171875
-130.0048828125
-128.173828125
-133.6669921875
-119.93408203125
-119.93408203125
-132.75146484375
-129.08935546875
-131.8359375
-133.6669921875
-126.3427734375
-135.498046875
-144.6533203125
-137.3291015625
-137.3291015625
-130.0048828125
-135.498046875
-139.16015625
-138.24462890625
-137.3291015625
-131.8359375
-135.498046875
-130.92041015625
-133.6669921875
-130.92041015625
-133.6669921875
-133.6669921875
-139.16015625
-140.9912109375
-150.146484375
-171.20361328125
-168.45703125
-180.35888671875
-172.119140625
-142.822265625
-105.28564453125
-54.931640625
24.71923828125
162.9638671875
302.1240234375
463.2568359375
653.6865234375
830.38330078125
968.6279296875
1097.71728515625
1192.0166015625
1198.42529296875
1023.5595703125
751.64794921875
480.65185546875
227.96630859375
100.7080078125
29.296875
-27.4658203125
-41.19873046875
-58.59375
-98.876953125
-122.6806640625
-125.42724609375
-100.7080078125
-77.81982421875
-73.2421875
-73.2421875
-75.0732421875
-88.80615234375
-97.96142578125
-97.96142578125
-96.13037109375
-100.7080078125
-98.876953125
-96.13037109375
-99.79248046875
-99.79248046875
-91.552734375
-100.7080078125
-103.45458984375
-105.28564453125
-104.3701171875
-104.3701171875
-105.28564453125
-100.7080078125
-103.45458984375
-100.7080078125
-96.13037109375
-99.79248046875
-93.3837890625
-88.80615234375
-90.63720703125
-82.3974609375
-76.904296875
-75.0732421875
-77.81982421875
-82.3974609375
-81.48193359375
-67.7490234375
-61.34033203125
-72.32666015625
-65.91796875
-60.4248046875
-81.48193359375
-78.7353515625
-63.17138671875
-54.01611328125
-43.9453125
-38.4521484375
-46.69189453125
-33.87451171875
-18.310546875
-20.1416015625
-21.05712890625
-24.71923828125
-25.634765625
-30.21240234375
-19.22607421875
-5.4931640625
9.1552734375
7.32421875
17.39501953125
23.8037109375
24.71923828125
25.634765625
40.283203125
44.86083984375
56.7626953125
73.2421875
82.3974609375
86.0595703125
81.48193359375
80.56640625
83.31298828125
92.46826171875
95.21484375
104.3701171875
103.45458984375
108.0322265625
119.93408203125
132.75146484375
147.39990234375
151.9775390625
153.80859375
162.9638671875
160.21728515625
151.06201171875
157.470703125
165.71044921875
173.03466796875
184.02099609375
198.66943359375
207.82470703125
204.16259765625
215.14892578125
216.064453125
221.5576171875
206.9091796875
201.416015625
187.68310546875
170.2880859375
184.02099609375
195.9228515625
195.00732421875
189.51416015625
176.69677734375
165.71044921875
155.6396484375
138.24462890625
124.51171875
109.86328125
119.93408203125
122.6806640625
83.31298828125
79.65087890625
80.56640625
80.56640625
69.580078125
66.83349609375
53.1005859375
30.21240234375
7.32421875
-13.73291015625
-5.4931640625
-3.662109375
8.23974609375
-8.23974609375
-60.4248046875
-59.50927734375
-69.580078125
-121.76513671875
-108.94775390625
-123.59619140625
-123.59619140625
-126.3427734375
-121.76513671875
-124.51171875
-119.0185546875
-108.94775390625
-107.11669921875
-110.77880859375
-122.6806640625
-112.60986328125
-108.94775390625
-120.849609375
-111.6943359375
-100.7080078125
-96.13037109375
-106.201171875
-97.0458984375
-111.6943359375
-117.1875
-110.77880859375
-121.76513671875
-115.3564453125
-114.44091796875
-107.11669921875
-109.86328125
-109.86328125
-114.44091796875
-113.525390625
-119.0185546875
-119.93408203125
-112.60986328125
-119.0185546875
-110.77880859375
-105.28564453125
-111.6943359375
-121.76513671875
-124.51171875
-127.25830078125
-116.27197265625
-113.525390625
-106.201171875
-116.27197265625
-119.93408203125
-131.8359375
-128.173828125
-116.27197265625
-104.3701171875
-99.79248046875
-112.60986328125
-118.10302734375
-119.93408203125
-117.1875
-102.5390625
-93.3837890625
-97.0458984375
-115.3564453125
-135.498046875
-113.525390625
-99.79248046875
-100.7080078125
-109.86328125
-124.51171875
-125.42724609375
-119.0185546875
-113.525390625
-119.93408203125
-125.42724609375
-114.44091796875
-127.25830078125
-135.498046875
-130.0048828125
-125.42724609375
-122.6806640625
-116.27197265625
-126.3427734375
-129.08935546875
-119.0185546875
-120.849609375
-129.08935546875
-130.0048828125
-124.51171875
-122.6806640625
-137.3291015625
-145.56884765625
-142.822265625
-141.90673828125
-148.3154296875
-136.41357421875
-135.498046875
-151.9775390625
-148.3154296875
-145.56884765625
-119.93408203125
-89.7216796875
-71.4111328125
-72.32666015625
-80.56640625
-78.7353515625
-66.83349609375
-62.255859375
-59.50927734375
-35.70556640625
-21.05712890625
-26.55029296875
-15.56396484375
-32.04345703125
-37.53662109375
-38.4521484375
-60.4248046875
-66.83349609375
-66.83349609375
-44.86083984375
-19.22607421875
-22.88818359375
-45.7763671875
-51.26953125
-72.32666015625
-85.14404296875
-119.0185546875
-101.62353515625
-110.77880859375
-145.56884765625
-167.54150390625
-176.69677734375
-136.41357421875
-139.16015625
-134.58251953125
-131.8359375
-129.08935546875
-135.498046875
-153.80859375
-157.470703125
-153.80859375
-151.06201171875
-147.39990234375
-148.3154296875
-161.1328125
-160.21728515625
-162.04833984375
-171.20361328125
-158.38623046875
-160.21728515625
-151.06201171875
-151.9775390625
-135.498046875
-134.58251953125
-145.56884765625
-146.484375
-166.6259765625
-188.5986328125
-180.35888671875
-184.02099609375
-175.78125
-178.52783203125
-184.9365234375
-181.2744140625
-187.68310546875
-194.091796875
-182.18994140625
-186.767578125
-219.7265625
-214.2333984375
-184.02099609375
-146.484375
-96.13037109375
-30.21240234375
103.45458984375
257.26318359375
398.25439453125
575.86669921875
730.5908203125
880.7373046875
1040.0390625
1168.212890625
1186.5234375
1051.025390625
809.326171875
538.330078125
268.24951171875
95.21484375
0.91552734375
-54.01611328125
-80.56640625
-87.890625
-120.849609375
-173.9501953125
-196.83837890625
-188.5986328125
-156.55517578125
-134.58251953125
-112.60986328125
-120.849609375
-126.3427734375
-125.42724609375
-121.76513671875
-122.6806640625
-131.8359375
-147.39990234375
-162.04833984375
-166.6259765625
-157.470703125
-157.470703125
-166.6259765625
-175.78125
-168.45703125
-181.2744140625
-161.1328125
-150.146484375
-149.23095703125
-145.56884765625
-146.484375
-156.55517578125
-147.39990234375
-139.16015625
-139.16015625
-139.16015625
-134.58251953125
-118.10302734375
-119.93408203125
-123.59619140625
-124.51171875
-124.51171875
-121.76513671875
-120.849609375
-121.76513671875
-123.59619140625
-118.10302734375
-107.11669921875
-100.7080078125
-99.79248046875
-102.5390625
-108.0322265625
-102.5390625
-90.63720703125
-85.14404296875
-89.7216796875
-97.0458984375
-82.3974609375
-88.80615234375
-105.28564453125
-90.63720703125
-69.580078125
-34.7900390625
-55.84716796875
-52.18505859375
-43.02978515625
-26.55029296875
-34.7900390625
-51.26953125
-67.7490234375
-54.931640625
-25.634765625
0.91552734375
18.310546875
31.1279296875
26.55029296875
40.283203125
37.53662109375
32.958984375
48.52294921875
63.17138671875
73.2421875
86.97509765625
86.0595703125
94.29931640625
108.0322265625
108.0322265625
109.86328125
103.45458984375
105.28564453125
100.7080078125
107.11669921875
124.51171875
136.41357421875
140.07568359375
144.6533203125
149.23095703125
148.3154296875
149.23095703125
147.39990234375
139.16015625
140.9912109375
141.90673828125
148.3154296875
150.146484375
150.146484375
143.73779296875
138.24462890625
121.76513671875
108.0322265625
90.63720703125
80.56640625
73.2421875
73.2421875
75.98876953125
54.01611328125
40.283203125
25.634765625
9.1552734375
-5.4931640625
-20.1416015625
-42.1142578125
-52.18505859375
-54.01611328125
-55.84716796875
-54.931640625
-66.83349609375
-85.14404296875
-99.79248046875
-109.86328125
-125.42724609375
-130.92041015625
-134.58251953125
-126.3427734375
-125.42724609375
-140.07568359375
-145.56884765625
-141.90673828125
-142.822265625
-142.822265625
-143.73779296875
-139.16015625
-151.06201171875
-155.6396484375
-153.80859375
-160.21728515625
-166.6259765625
-171.20361328125
-161.1328125
-159.3017578125
-151.9775390625
-151.06201171875
-137.3291015625
-134.58251953125
-149.23095703125
-144.6533203125
-136.41357421875
-142.822265625
-151.06201171875
-136.41357421875
-138.24462890625
-158.38623046875
-144.6533203125
-126.3427734375
-127.25830078125
-136.41357421875
-130.92041015625
-135.498046875
-127.25830078125
-125.42724609375
-131.8359375
-130.92041015625
-129.08935546875
-121.76513671875
-125.42724609375
-129.08935546875
-135.498046875
-128.173828125
-124.51171875
-130.92041015625
-130.92041015625
-133.6669921875
-145.56884765625
-142.822265625
-138.24462890625
-133.6669921875
-141.90673828125
-137.3291015625
-127.25830078125
-131.8359375
-133.6669921875
-117.1875
-121.76513671875
-126.3427734375
-124.51171875
-120.849609375
-124.51171875
-131.8359375
-138.24462890625
-126.3427734375
-140.9912109375
-143.73779296875
-137.3291015625
-133.6669921875
-141.90673828125
-147.39990234375
-132.75146484375
-126.3427734375
-133.6669921875
-130.92041015625
-132.75146484375
-137.3291015625
-135.498046875
-141.90673828125
-133.6669921875
-130.0048828125
-127.25830078125
-104.3701171875
-118.10302734375
-124.51171875
-115.3564453125
-120.849609375
-117.1875
-128.173828125
-117.1875
-121.76513671875
-138.24462890625
-119.93408203125
-115.3564453125
-105.28564453125
-100.7080078125
-96.13037109375
-92.46826171875
-87.890625
-88.80615234375
-86.0595703125
-88.80615234375
-85.14404296875
-88.80615234375
-75.98876953125
-55.84716796875
-26.55029296875
-20.1416015625
-44.86083984375
-45.7763671875
-36.62109375
-24.71923828125
-19.22607421875
-7.32421875
16.4794921875
20.1416015625
14.6484375
8.23974609375
-12.8173828125
-19.22607421875
-32.04345703125
-51.26953125
-56.7626953125
-71.4111328125
-69.580078125
-74.15771484375
-97.0458984375
-128.173828125
-128.173828125
-129.08935546875
-122.6806640625
-119.93408203125
-129.08935546875
-130.0048828125
-133.6669921875
-127.25830078125
-134.58251953125
-140.07568359375
-138.24462890625
-119.0185546875
-134.58251953125
-144.6533203125
-133.6669921875
-136.41357421875
-148.3154296875
-140.07568359375
-154.72412109375
-159.3017578125
-134.58251953125
-141.90673828125
-151.9775390625
-147.39990234375
-141.90673828125
-141.90673828125
-131.8359375
-140.9912109375
-130.92041015625
-122.6806640625
-129.08935546875
-122.6806640625
-120.849609375
-120.849609375
-138.24462890625
-138.24462890625
-154.72412109375
-170.2880859375
-172.119140625
-151.9775390625
-110.77880859375
-67.7490234375
29.296875
182.18994140625
303.955078125
465.087890625
649.10888671875
829.4677734375
973.20556640625
1108.70361328125
1213.9892578125
1215.8203125
1026.30615234375
741.5771484375
468.75
222.47314453125
90.63720703125
14.6484375
-26.55029296875
-63.17138671875
-98.876953125
-124.51171875
-133.6669921875
-135.498046875
-108.0322265625
-75.0732421875
-54.01611328125
-55.84716796875
-71.4111328125
-78.7353515625
-85.14404296875
-92.46826171875
-98.876953125
-97.0458984375
-96.13037109375
-93.3837890625
-97.0458984375
-107.11669921875
-103.45458984375
-104.3701171875
-97.0458984375
-84.228515625
-83.31298828125
-95.21484375
-90.63720703125
-83.31298828125
-73.2421875
-84.228515625
-86.97509765625
-97.0458984375
-81.48193359375
-87.890625
-97.0458984375
-105.28564453125
-105.28564453125
-104.3701171875
-99.79248046875
-96.13037109375
-99.79248046875
-91.552734375
-99.79248046875
-116.27197265625
-107.11669921875
-96.13037109375
-89.7216796875
-50.35400390625
-26.55029296875
-49.4384765625
-52.18505859375
-11.90185546875
-10.07080078125
-17.39501953125
-14.6484375
-13.73291015625
-14.6484375
-11.90185546875
-10.07080078125
-10.986328125
-13.73291015625
-9.1552734375
3.662109375
6.40869140625
11.90185546875
18.310546875
12.8173828125
14.6484375
29.296875
28.38134765625
31.1279296875
50.35400390625
58.59375
63.17138671875
72.32666015625
87.890625
93.3837890625
83.31298828125
70.49560546875
87.890625
99.79248046875
107.11669921875
128.173828125
140.9912109375
161.1328125
160.21728515625
153.80859375
162.9638671875
173.03466796875
175.78125
172.119140625
191.34521484375
207.82470703125
212.40234375
214.2333984375
211.48681640625
211.48681640625
206.9091796875
205.99365234375
208.740234375
202.33154296875
217.8955078125
212.40234375
211.48681640625
215.14892578125
217.8955078125
208.740234375
194.091796875
190.4296875
175.78125
170.2880859375
158.38623046875
140.9912109375
133.6669921875
119.0185546875
102.5390625
90.63720703125
79.65087890625
71.4111328125
54.931640625
29.296875
10.986328125
-3.662109375
-8.23974609375
-32.04345703125
-49.4384765625
-74.15771484375
-80.56640625
-72.32666015625
-74.15771484375
-74.15771484375
-75.98876953125
-78.7353515625
-84.228515625
-101.62353515625
-97.96142578125
-97.0458984375
-111.6943359375
-116.27197265625
-116.27197265625
-125.42724609375
-119.0185546875
-114.44091796875
-119.0185546875
-112.60986328125
-107.11669921875
-117.1875
-115.3564453125
-113.525390625
-118.10302734375
-117.1875
-131.8359375
-140.9912109375
-141.90673828125
-145.56884765625
-130.92041015625
-132.75146484375
-119.0185546875
-117.1875
-120.849609375
-126.3427734375
-122.6806640625
-123.59619140625
-116.27197265625
-119.0185546875
-118.10302734375
-121.76513671875
-124.51171875
-120.849609375
-117.1875
-114.44091796875
-108.94775390625
-102.5390625
-95.21484375
-98.876953125
-95.21484375
-95.21484375
-102.5390625
-112.60986328125
-111.6943359375
-109.86328125
-107.11669921875
-102.5390625
-125.42724609375
-127.25830078125
-107.11669921875
-108.0322265625
-108.0322265625
-109.86328125
-109.86328125
-109.86328125
-108.94775390625
-102.5390625
-100.7080078125
-104.3701171875
-106.201171875
-104.3701171875
-99.79248046875
-103.45458984375
-107.11669921875
-109.86328125
-107.11669921875
-108.94775390625
-111.6943359375
-108.0322265625
-110.77880859375
-111.6943359375
-108.0322265625
-111.6943359375
-115.3564453125
-114.44091796875
-110.77880859375
-108.0322265625
-112.60986328125
-121.76513671875
-121.76513671875
-114.44091796875
-108.0322265625
-123.59619140625
-143.73779296875
-130.92041015625
-124.51171875
-119.93408203125
-108.94775390625
-104.3701171875
-113.525390625
-123.59619140625
-136.41357421875
-135.498046875
-144.6533203125
-135.498046875
-119.0185546875
-121.76513671875
-112.60986328125
-107.11669921875
-107.11669921875
-102.5390625
-108.0322265625
-114.44091796875
-123.59619140625
-125.42724609375
-117.1875
-109.86328125
-111.6943359375
-116.27197265625
-100.7080078125
-86.97509765625
-77.81982421875
-77.81982421875
-67.7490234375
-68.66455078125
-71.4111328125
-60.4248046875
-57.67822265625
-55.84716796875
-54.01611328125
-67.7490234375
-85.14404296875
-59.50927734375
-32.04345703125
-29.296875
-29.296875
-30.21240234375
-22.88818359375
-0.91552734375
-5.4931640625
-14.6484375
-14.6484375
-8.23974609375
-4.57763671875
-3.662109375
-9.1552734375
-24.71923828125
-32.958984375
-45.7763671875
-57.67822265625
-77.81982421875
-85.14404296875
-86.97509765625
-102.5390625
-107.11669921875
-114.44091796875
-118.10302734375
-128.173828125
-136.41357421875
-133.6669921875
-119.93408203125
-125.42724609375
-126.3427734375
-127.25830078125
-123.59619140625
-125.42724609375
-122.6806640625
-119.93408203125
-122.6806640625
-125.42724609375
-133.6669921875
-131.8359375
-131.8359375
-130.0048828125
-135.498046875
-130.0048828125
-129.08935546875
-134.58251953125
-130.92041015625
-128.173828125
-124.51171875
-118.10302734375
-121.76513671875
-128.173828125
-129.08935546875
-130.92041015625
-132.75146484375
-139.16015625
-137.3291015625
-131.8359375
-144.6533203125
-159.3017578125
-184.02099609375
-194.091796875
-181.2744140625
-141.90673828125
-80.56640625
-8.23974609375
114.44091796875
251.77001953125
404.6630859375
582.275390625
777.28271484375
928.3447265625
1071.1669921875
1185.60791015625
1239.6240234375
1167.29736328125
894.47021484375
610.65673828125
335.0830078125
148.3154296875
70.49560546875
8.23974609375
-37.53662109375
-59.50927734375
-83.31298828125
-105.28564453125
-101.62353515625
-81.48193359375
-63.17138671875
-57.67822265625
-56.7626953125
-66.83349609375
-67.7490234375
-83.31298828125
-80.56640625
-83.31298828125
-89.7216796875
-86.97509765625
-86.0595703125
-92.46826171875
-95.21484375
-91.552734375
-86.0595703125
-92.46826171875
-93.3837890625
-86.0595703125
-88.80615234375
-95.21484375
-104.3701171875
-106.201171875
-108.0322265625
-107.11669921875
-98.876953125
-95.21484375
-84.228515625
-83.31298828125
-88.80615234375
-101.62353515625
-93.3837890625
-90.63720703125
-90.63720703125
-89.7216796875
-78.7353515625
-76.904296875
-73.2421875
-65.00244140625
-62.255859375
-68.66455078125
-66.83349609375
-67.7490234375
-62.255859375
-45.7763671875
-29.296875
-25.634765625
-30.21240234375
-22.88818359375
-22.88818359375
-21.05712890625
-22.88818359375
-13.73291015625
-8.23974609375
-10.07080078125
-17.39501953125
-14.6484375
-7.32421875
-11.90185546875
-10.986328125
2.74658203125
7.32421875
14.6484375
21.97265625
28.38134765625
39.36767578125
44.86083984375
43.9453125
60.4248046875
58.59375
66.83349609375
75.98876953125
85.14404296875
84.228515625
98.876953125
97.0458984375
108.94775390625
129.08935546875
151.06201171875
154.72412109375
165.71044921875
162.9638671875
173.03466796875
164.794921875
167.54150390625
168.45703125
195.9228515625
194.091796875
207.82470703125
204.16259765625
204.16259765625
207.82470703125
211.48681640625
216.064453125
215.14892578125
200.50048828125
199.5849609375
215.14892578125
219.7265625
207.82470703125
199.5849609375
201.416015625
195.00732421875
200.50048828125
193.17626953125
179.443359375
162.04833984375
156.55517578125
147.39990234375
124.51171875
114.44091796875
95.21484375
81.48193359375
61.34033203125
45.7763671875
28.38134765625
21.97265625
11.90185546875
-5.4931640625
-16.4794921875
-14.6484375
-25.634765625
-37.53662109375
-53.1005859375
-65.00244140625
-75.0732421875
-80.56640625
-86.0595703125
-89.7216796875
-101.62353515625
-104.3701171875
-105.28564453125
-106.201171875
-110.77880859375
-107.11669921875
-113.525390625
-105.28564453125
-109.86328125
-119.0185546875
-121.76513671875
-121.76513671875
-121.76513671875
-122.6806640625
-124.51171875
-126.3427734375
-120.849609375
-118.10302734375
-116.27197265625
-104.3701171875
-111.6943359375
-130.0048828125
-123.59619140625
-108.94775390625
-117.1875
-120.849609375
-115.3564453125
-114.44091796875
-107.11669921875
-105.28564453125
-106.201171875
-95.21484375
-97.96142578125
-107.11669921875
-113.525390625
-113.525390625
-117.1875
-116.27197265625
-114.44091796875
-107.11669921875
-102.5390625
-103.45458984375
-100.7080078125
-96.13037109375
-99.79248046875
-105.28564453125
-104.3701171875
-107.11669921875
-100.7080078125
-96.13037109375
-98.876953125
-110.77880859375
-106.201171875
-105.28564453125
-108.0322265625
-113.525390625
-116.27197265625
-115.3564453125
-117.1875
-130.92041015625
-122.6806640625
-116.27197265625
-116.27197265625
-109.86328125
-114.44091796875
-94.29931640625
-90.63720703125
-106.201171875
-103.45458984375
-113.525390625
-111.6943359375
-113.525390625
-107.11669921875
-115.3564453125
-130.0048828125
-124.51171875
-127.25830078125
-115.3564453125
-125.42724609375
-111.6943359375
-110.77880859375
-116.27197265625
-112.60986328125
-117.1875
-120.849609375
-105.28564453125
-115.3564453125
-117.1875
-117.1875
-119.0185546875
-120.849609375
-119.93408203125
-123.59619140625
-120.849609375
-123.59619140625
-123.59619140625
-124.51171875
-125.42724609375
-128.173828125
-136.41357421875
-140.07568359375
-145.56884765625
-144.6533203125
-148.3154296875
-138.24462890625
-139.16015625
-140.07568359375
-126.3427734375
-125.42724609375
-132.75146484375
-130.0048828125
-121.76513671875
-118.10302734375
-107.11669921875
-110.77880859375
-108.94775390625
-97.96142578125
-86.0595703125
-77.81982421875
-83.31298828125
-76.904296875
-91.552734375
-83.31298828125
-82.3974609375
-98.876953125
-98.876953125
-73.2421875
-53.1005859375
-32.958984375
-34.7900390625
-36.62109375
-45.7763671875
-32.04345703125
-32.04345703125
-35.70556640625
-33.87451171875
-26.55029296875
-30.21240234375
-26.55029296875
-27.4658203125
-38.4521484375
-52.18505859375
-61.34033203125
-75.0732421875
-81.48193359375
-88.80615234375
-83.31298828125
-92.46826171875
-97.96142578125
-108.0322265625
-122.6806640625
-118.10302734375
-132.75146484375
-137.3291015625
-150.146484375
-151.9775390625
-141.90673828125
-145.56884765625
-150.146484375
-137.3291015625
-144.6533203125
-144.6533203125
-136.41357421875
-149.23095703125
-147.39990234375
-162.9638671875
-163.87939453125
-162.04833984375
-161.1328125
-165.71044921875
-155.6396484375
-145.56884765625
-151.06201171875
-178.52783203125
-171.20361328125
-158.38623046875
-143.73779296875
-145.56884765625
-144.6533203125
-147.39990234375
-146.484375
-149.23095703125
-151.9775390625
-155.6396484375
-162.04833984375
-160.21728515625
-186.767578125
-202.33154296875
